Ticker,AAL,AAPL,ABBV,ABNB,ABT,ACGL,ACI,ACN,ADBE,ADI,ADM,ADP,AEG,AEP,AFL,AIG,AJG,ALL,ALLY,AMAT,AMD,AMGN,AMP,AMT,AMZN,AON,APD,APO,AVGO,AXP,AZO,BA,BAC,BCE,BDX,BK,BKNG,BKR,BMO,BMY,BN,BNS,BSX,BX,C,CAH,CARR,CAT,CB,CBRE,CCEP,CCI,CCL,CEG,CFG,CHTR,CI,CL,CM,CME,CMI,CNC,CNH,CNI,CNQ,COF,COP,COR,COST,CP,CRBG,CRM,CSCO,CSX,CTSH,CTVA,CVE,CVS,CVX,D,DAL,DB,DD,DE,DELL,DFS,DG,DHI,DHR,DIS,DLTR,DOW,DTE,DUK,ECL,ED,EIX,EL,ELV,EMR,ENB,EOG,EPD,EQH,EQIX,ES,ET,ETN,ETR,EXC,F,FCX,FDX,FERN,FI,FIS,FITB,GD,GE,GEHC,GILD,GIS,GM,GOLD,GOOG,GPN,GS,HAL,HBAN,HCA,HD,HES,HIG,HON,HPE,HPQ,HUM,IBKR,IBM,ICE,IMO,INTC,INTU,IQV,ISRG,ITW,JCI,JNJ,JPM,KDP,KEY,KHC,KKR,KLAC,KMB,KMI,KO,KR,KVUE,L,LEN,LHX,LIN,LLY,LMT,LNC,LNG,LOW,LRCX,LUV,LYB,LYG,MA,MAR,MCD,MCK,MDLZ,MDT,MELI,MET,META,MFC,MGA,MKL,MMC,MMM,MO,MPC,MPLX,MRK,MS,MSFT,MT,MTB,MU,NEE,NEM,NFLX,NKE,NOC,NOW,NSC,NTR,NTRS,NUE,NVDA,NXPI,OKE,ORCL,ORLY,OXY,PCAR,PCG,PDD,PEG,PEP,PFE,PFG,PG,PGR,PH,PLD,PM,PNC,PPG,PRU,PSX,PYPL,QCOM,RCI,REGN,RF,RJF,RSG,RTX,RY,SBUX,SCHW,SHW,SLB,SLF,SO,SPGI,SRE,STM,STT,STZ,SU,SVXY,SYF,SYK,SYY,T,TD,TFC,TGT,TJX,TMO,TMUS,TRP,TRV,TSLA,TSN,TT,TU,TXN,UAL,UBER,UNH,UNP,UPS,USB,UVXY,V,VIXM,VIXY,VLO,VRTX,VXX,VXZ,VZ,WBA,WBD,WELL,WFC,WM,WMB,WMT,XEL,XOM,XYZ,ZTS
AAL,0.0007541569535781175,5.676708049906834e-05,8.123867386352966e-06,0.00015800016973774187,1.1655915753491878e-06,2.5012541029231585e-05,-5.535672596492458e-06,6.0066343991412195e-05,8.900024767254034e-05,0.0001342407856393106,4.55609648232679e-05,3.3746539980644554e-05,0.00010454967484735427,1.7522356144478366e-05,3.368716066046351e-05,6.000236200369471e-05,2.8225134517899452e-05,-8.343834703932746e-06,0.00015311688072940639,0.00010554709382984733,0.00016600578262243216,3.460344118624845e-05,0.00011492810995474909,-3.2712431894147346e-05,0.00012341141769052526,3.5853849323323365e-05,4.874483479862512e-05,0.00014663418202613966,0.00010347938385469845,0.00010588112374928217,4.235710738545491e-05,0.00010802948681371643,0.0001289285568120001,2.5468006851872352e-05,5.603189490468365e-05,6.667143557210144e-05,9.27301715007435e-05,5.6982938384147334e-05,0.0001505952755267021,1.0780683499136856e-05,0.00014751795086405354,9.334603062963374e-05,5.882305228630341e-06,0.0001689378068770789,0.00015617378893279841,-7.899353380834862e-06,0.00010980668151694635,0.00013477250902700709,3.473257431651044e-05,6.946086787046919e-05,3.2241289570361015e-05,-4.123122705895598e-06,0.00023965804744142754,0.00014782195097953226,0.00016665771433655729,7.720814096792808e-05,1.108783166844261e-05,-1.5871869352330153e-05,0.0001192210387396261,1.0449908665336032e-05,9.061300258500348e-05,8.98934860049385e-06,0.0001430778589450514,7.600764067077687e-05,4.3915904111524046e-05,0.00016767726021240322,1.840633165576694e-05,-1.5057258037551699e-05,1.835227560175792e-05,8.27473798014036e-05,0.00013498261214835123,0.00012666466326869481,8.343087986819178e-05,8.466098921649587e-05,5.857963764423491e-05,8.212768277374167e-05,4.829847373981364e-05,4.748827349023687e-05,4.322862842576553e-05,1.4358588496550726e-05,0.00040607195132228406,0.00014781923464866415,6.963872279374724e-05,7.429400271519178e-05,0.00012049381639334098,0.00015911839730158394,2.9220518467694793e-05,6.295943133341139e-05,2.41571409287912e-05,9.928669444102232e-05,5.530239331771076e-05,8.002468594968749e-05,1.8505996163354123e-05,-1.2292953674245419e-06,1.699979498773391e-05,6.3949915920302295e-06,5.918566250355521e-05,0.00012372287716932504,3.323833706631018e-05,0.00010470963223916925,4.446083056769665e-05,1.8446119893380132e-05,1.850508128422802e-05,0.00014195405728158135,2.5493590409273684e-05,7.595847084234528e-06,4.158029934264756e-05,0.00011044457213982975,1.1774410690703992e-05,2.4426082769800165e-05,0.00012353657630546688,0.00010659822219500016,8.89971528172575e-05,2.339709859546274e-05,2.6234842300646264e-05,6.97470545414735e-05,0.000127047331120458,4.6545742447581146e-05,2.5515066681115794e-05,7.742108075586408e-05,4.415736649039915e-05,-1.676726230534031e-05,0.00013373454650931555,3.479993294381533e-05,8.221874224842366e-05,0.00011731612212419562,0.00013690739771216758,4.779161858069668e-05,0.00014551299976410176,-1.5993393785718224e-05,5.765321142816566e-05,5.25715311238315e-05,5.1232983931669735e-05,3.7567884655943256e-05,0.0001530558747455646,9.693247978855912e-05,5.241403533407053e-05,7.432869045754167e-05,6.871423005563057e-05,3.350126417335862e-05,5.2840516301480006e-05,0.00020120715097061862,0.00010148730088223799,0.00011883417899012796,5.846243171704578e-05,6.886409831708829e-05,0.00010436499187043555,1.2477721268100817e-05,0.00012076276667117818,2.0850935247937863e-05,0.00016366396156057819,1.3997166472024886e-05,0.00013468568514768083,0.00014016662396414812,1.3831203557767847e-05,5.598779073108746e-05,6.288575468299219e-07,2.562829395070997e-05,4.150581803583107e-05,6.640951559733377e-05,8.681788893658044e-05,8.50006245348766e-06,3.114259384711552e-05,-1.6827703036242158e-05,-1.49831545137179e-05,0.00015573001671844556,2.7339041282223097e-05,7.261156057310748e-05,0.00013210970535505607,0.0003189708029349527,6.99235886825001e-05,8.13531143256442e-05,4.620275687287847e-05,0.00014699532653262456,3.2120262123132476e-05,-6.794030071649541e-05,1.0896069230322254e-05,2.6117528540264074e-05,5.841581841969306e-05,0.00010355304010039901,6.836425666938241e-05,0.00011279209542348065,0.00017328517561703382,7.702366724800812e-05,7.159247535341338e-06,8.471627784420292e-05,1.7548368302717356e-05,1.945599279384184e-05,2.057150171964458e-05,-6.747725942818079e-06,0.00013468379479030475,7.389802877827485e-05,0.00011449055242167969,0.00014727886574343905,0.0001997139552077584,1.643588261017789e-05,3.448017873741449e-05,6.789180443529491e-05,8.545444896614212e-05,-2.3877052395798145e-05,0.00011821820443235781,8.884513013416718e-05,6.944917230374158e-05,9.829604832654155e-05,9.394978155139427e-05,0.0001130792368428569,0.00015769875001317158,4.218744725312073e-05,5.2008855975896e-05,2.9720965813329984e-05,6.37317743774478e-06,0.00012138898972864578,1.0753882644497037e-05,6.76856163933186e-05,3.955364923338331e-05,2.2433891929647482e-06,5.776507117874342e-05,8.844002225623109e-05,-7.80871876144762e-06,-2.7688615975530437e-06,0.00014738094251841758,4.257429228871548e-05,2.3460524019745333e-06,0.00012730307363705007,0.00010228860365216566,0.00012025482437482612,4.2103989228831824e-05,0.00013501262227106167,0.00014039123784719684,5.186844345778194e-05,4.595559587146105e-05,0.00014629493481737723,0.00010078156776767914,4.002159773534535e-06,3.1404727623968645e-05,8.397963668897357e-05,7.790775047755376e-05,7.751499011659175e-05,5.680792768350838e-05,4.408593404819256e-05,9.288391157401979e-05,-4.828848325326894e-06,4.222378096488437e-05,4.4333887797237964e-05,0.0001847024556357595,0.00010849081157791272,7.432606303866455e-06,4.3253749627712e-05,0.0001698045047128296,0.00020503558532399002,9.063513446246592e-06,4.127994500644871e-05,1.5170833140109515e-05,5.2202871914914725e-05,0.00015093994605035475,8.931478326442608e-05,6.194591119014149e-05,4.8149230552781127e-05,-1.0614508591801226e-05,4.991847793329662e-05,3.9472919295367156e-05,0.0002094506852165784,5.191190359742065e-06,4.9680438331377595e-05,3.6693525936323886e-05,0.00011653916351504516,0.000541809390950658,6.596574608423233e-05,2.9953963785794258e-05,5.4103247528632594e-05,0.00010306474063290004,0.00011972459506411026,-0.0005017099813292805,4.876112612232115e-05,-0.00015437185149748075,-0.00034087952594265335,5.331530678357602e-05,9.8618767850222e-06,-0.00033654958501519927,-0.00013472100831113384,1.246101730078641e-06,0.00021858969402838182,0.00014687048035692756,-1.861405266357328e-06,0.0001608512440434634,2.1076996014558e-06,3.555814820225287e-05,1.2935642940526316e-05,-5.818858893463923e-06,1.502779280972031e-05,0.00020497993315712933,5.732960704629706e-05
AAPL,5.676708049906834e-05,0.00021462073238522457,2.4641395241400472e-06,8.322811105467423e-05,-1.234881381559447e-05,-3.832179039780067e-06,1.7165291851876527e-05,3.8230197445647836e-05,5.952532706193332e-05,9.77314152280604e-05,-6.9548501079148045e-06,8.14906047851433e-06,3.211139434731905e-05,1.937777914465716e-06,-7.840833220136478e-06,1.5422216045979727e-05,5.068666070023497e-06,-1.3184132319720565e-06,6.19965308969636e-05,0.0001036970666346934,0.00011034874582582408,5.072321148146401e-05,2.991443535255306e-05,1.0239325150716432e-05,8.46314367814342e-05,8.317826623297286e-06,4.4671710287022205e-06,2.5051908806712642e-05,0.00011900545532783738,1.7839573710021554e-05,9.371713507103842e-06,4.8941488131165884e-05,2.0796981381143602e-05,2.202772338174763e-05,1.5868265350350174e-06,2.226344943626748e-05,5.4792222002881654e-05,3.861006437136782e-06,1.7197118452853993e-05,-1.4288138110938026e-05,6.413536335425201e-05,3.1686551933324315e-05,2.388038519944802e-05,4.881302750056568e-05,3.0162431817876995e-05,-1.9518937692085747e-05,5.28087854040437e-05,3.2379927169226956e-05,8.084909287941794e-06,3.7046368095043775e-05,3.406478316811411e-05,9.909003886418918e-06,9.049830228423962e-05,4.621701611843506e-06,1.585771128663067e-05,3.6805125811353046e-05,-1.1939512764924495e-05,4.2840021942056224e-06,3.638678749423462e-05,-1.080957870671259e-05,1.31335964393835e-05,-3.103024809195981e-06,3.7212576803614436e-05,2.64719722611172e-05,9.989539773882152e-06,2.62243464125725e-05,-4.8294795827964845e-06,-1.3340261118711354e-05,4.850796720059063e-05,2.669858343289479e-05,3.4809674303095936e-05,6.035292284503853e-05,2.1024873832985152e-05,1.9128623272565432e-05,3.487419637216829e-05,3.291373370186143e-05,2.0333161547624826e-05,1.8277730637585882e-05,7.581303643269309e-06,-1.289688893637716e-05,3.5484955889870914e-05,3.9001380164402855e-05,4.355059598947239e-05,2.640551153779275e-05,5.334438998558458e-05,7.776502563714317e-06,-2.0745489878420986e-05,5.0853625524793884e-05,2.7127769714529896e-05,1.4912364847676136e-05,3.8886173190506946e-05,3.787096890973299e-05,6.763138915660366e-06,-1.684955324564723e-06,3.530476242193318e-05,-8.751549202088927e-06,2.07844995534587e-05,4.418160548763075e-05,1.1852389350620735e-06,3.155809302245787e-05,1.089382298381141e-05,-9.32520172552894e-06,3.1761765464522983e-06,3.646631930558488e-05,3.3848252266688264e-05,8.849689560180951e-06,3.0151262156800736e-07,4.701401691339849e-05,-1.9968249982452357e-05,-1.453771907384628e-05,3.832809236381527e-05,4.5503436430014145e-05,4.406401711321489e-05,-0.00010330114128689819,1.2494249209751706e-05,7.492790317706872e-06,2.9292315617619713e-05,5.84569377537237e-06,3.558573817771621e-05,5.642341991881148e-05,8.063712545141082e-06,-1.2176804321948452e-05,1.8447355357254068e-05,4.503379893380923e-05,8.921430840966375e-05,4.046137521192386e-05,3.316299565793655e-05,1.869232733508194e-05,2.6627331388300984e-05,1.9709399878402083e-05,3.603381549023577e-05,1.5889589729694355e-05,4.988938695563012e-06,2.4341412028513372e-05,3.523432137045096e-05,5.957450406835096e-05,1.2977105046632334e-05,5.97854136040328e-06,2.259267757363591e-05,2.61148888016086e-05,-5.179894015137398e-06,9.652168117434704e-05,5.6896113438955805e-05,3.383323446604552e-05,6.489886631366283e-05,2.1983513857482718e-05,3.369289815042606e-05,-2.8761780078005974e-06,4.8541431247218686e-06,1.6486859549487516e-05,4.3216347579661383e-05,1.2989928767048447e-05,3.7433225430404553e-05,0.00010321692153947754,-2.0726084758859416e-06,-1.957703602172973e-05,1.5322905707870793e-05,-1.1083970711025081e-05,1.0943949528343012e-05,1.3163799046043508e-05,5.795783326166929e-05,-1.542741909979567e-05,1.4742886410179131e-05,2.811779571392588e-05,-2.520089219058684e-05,3.928204918477019e-05,-1.2645893941597738e-05,2.841298776209e-05,9.793401146710807e-05,2.081867948947267e-05,3.0437598588109787e-05,3.683675576745911e-05,2.527075826447669e-05,4.8984828522329334e-05,2.7453578848446355e-05,-2.516460727167922e-06,1.4474010861047109e-05,1.194379142476048e-05,6.26975835003218e-05,1.5022697274822602e-05,7.06184745403531e-05,2.6888702936102484e-05,5.127649732693606e-05,1.9827590021651967e-05,8.36314438139938e-06,1.593326104387888e-05,4.863270701923893e-06,6.158121583352606e-06,3.0713572085750106e-06,1.5455175190147013e-05,2.164788393098199e-05,8.485553622449802e-05,4.6965363915120554e-05,1.8955230156662474e-05,7.074252584901435e-05,2.1759539407752945e-06,2.2008765805433495e-05,7.590731165841064e-05,5.816668797391834e-05,-2.430985173166071e-05,7.204905885237698e-05,3.1546830893345805e-05,1.289900119533958e-05,2.5363260084204842e-05,2.8667945584877497e-05,0.00011390394458873629,0.00011209991904262794,1.5938813307827348e-06,4.8566856634808006e-05,1.7898950532451567e-05,1.6182617320412696e-05,1.797857588493678e-05,1.9139753358544026e-05,6.409452427855393e-05,-1.8733434968907258e-06,1.0519246739429509e-05,2.2373930378110617e-05,2.2528623393833894e-05,-4.815829984989273e-07,-3.273707095641902e-06,4.684673368971969e-05,3.940518812193017e-05,1.4159268042372267e-05,2.52673206632204e-05,4.0106497493198125e-05,2.667952530615682e-05,1.3207766988729722e-05,4.236675242284402e-05,0.00012127185753420705,3.90865390501439e-05,5.644338057984113e-05,3.497394115866737e-05,8.12431540766929e-06,1.3280612616525034e-05,-4.823228881165575e-06,2.961203738128061e-05,4.232989044533513e-05,7.545040893083442e-06,3.8926586879584616e-05,1.7282224358201994e-05,2.3901025579708802e-05,-1.193889764293752e-06,4.1932667691932116e-05,9.890520950770202e-06,0.0001365106642425765,3.250749957726561e-05,3.733642574050288e-05,-4.696688475157279e-06,0.00014537685984013574,2.2894089961895963e-05,1.580900593113244e-05,5.141362194005305e-06,-1.0330742897126858e-05,1.7098714265432585e-05,3.2842519297876166e-05,2.3610805197915162e-05,3.530693229241029e-05,1.3786624960991972e-05,7.845741243341357e-06,4.991441686600461e-06,1.173483897482992e-05,0.00019545868235732713,-5.810653652643123e-06,2.550009997941023e-05,2.037977088276056e-05,8.041377986968418e-05,3.8698653075688724e-05,3.691591875429381e-05,-3.384869086327981e-06,1.3891138592083617e-05,4.732081302977252e-05,3.519417086025976e-05,-0.0004156128453412937,2.1254206155758233e-05,-0.00013365672334277964,-0.00028797063320686305,-1.0435532488912431e-05,3.0126475748103336e-05,-0.00028036661894533584,-0.00012663544326226036,-3.4078523181091153e-06,4.202248902305243e-05,8.262818320437671e-05,1.1445709115471354e-05,1.3771618123696536e-05,1.1565221989296176e-05,-1.3736558895908214e-05,1.5232135788848101e-05,8.495879307677468e-06,-3.876733381443249e-07,7.413227788815769e-05,3.018550325172457e-05
ABBV,8.123867386352966e-06,2.4641395241400472e-06,0.00022065262908981087,-1.6530573757738073e-05,5.360715394741708e-05,4.7716492963140654e-05,8.885006625192191e-06,7.6101741667956275e-06,2.0995936043317985e-05,7.939503311313222e-06,1.3923593849848496e-05,3.842057255101193e-05,-3.612112589004212e-06,5.320896972633745e-05,2.009731770263448e-05,2.751073292283715e-05,4.954604142860784e-05,4.472620338908372e-05,1.8387592360590858e-05,-4.131624744469093e-06,-4.137652073399528e-05,7.32280395026888e-05,8.136796245957787e-06,7.152542787960707e-05,-1.1165822836713423e-06,4.847579611362598e-05,1.6815027656489645e-05,-1.3718140961199103e-05,-4.023117891746687e-05,1.8791272053656584e-05,2.3887867747892425e-05,1.3324471185402344e-05,2.0564270272112404e-05,4.12382960950185e-05,2.1212078770434284e-05,1.4093144786660399e-05,-2.3673477161243204e-06,3.5835661522448444e-05,-3.997206710329861e-06,3.1260518958266255e-05,8.218936592918071e-06,2.5098348855446304e-07,1.2348815613603109e-05,8.81400253650475e-07,2.4798756175691062e-05,2.1265492592762872e-05,7.4346589719256474e-06,1.228313394305442e-05,3.6812109583295725e-05,5.2594971753120244e-05,3.0767722381508736e-05,6.478912010198111e-05,-3.5906198023670335e-05,-5.700080531780304e-05,3.127689759159989e-05,3.725821916609397e-05,1.6579190854072534e-05,2.7925866734278286e-05,-3.3265079081974833e-06,2.381438742221238e-05,1.3014160766560405e-05,5.0495870717010344e-05,2.8688793718514867e-05,1.9704781742039167e-05,7.18373863220435e-06,1.561135861179152e-05,2.3414911274833807e-05,3.0746450184251524e-05,2.0961895163312858e-05,2.791475767444869e-05,1.003485793698015e-05,-9.700652253332432e-06,1.2423372909724494e-05,3.697511192220205e-05,1.7535908549836785e-05,4.1557138064001985e-05,2.9471514837487663e-06,6.60334841457297e-05,2.258551311784254e-05,3.778932636216243e-05,-9.355577161546435e-06,-1.670328587231247e-05,4.088250879037701e-05,3.4047411353632866e-05,-3.5396361998437226e-05,7.53717618015332e-06,3.378688033994057e-05,3.189750712990655e-05,5.297173647202904e-05,4.697757851305061e-07,2.1114483358760404e-05,3.081407001035219e-05,4.4494881659372176e-05,4.077672715227878e-05,2.0718318224464148e-05,4.374382285618384e-05,3.400305655580237e-05,2.3928534455720185e-05,4.0782979752205266e-05,7.874355813800518e-06,8.229667387460046e-06,1.6421895257643522e-05,1.756942919338803e-05,-2.371445753730734e-06,3.890007337182431e-05,5.653309695002776e-05,1.5834462936107245e-05,-4.45625978188117e-05,3.9770775190655496e-05,4.0128097583526186e-05,1.4859277737432975e-05,1.307901552090683e-05,1.8891103751343284e-05,-4.2747032802923256e-05,2.5591965244038807e-05,3.136193844023183e-05,2.1779531066325057e-05,1.3333388589595147e-05,3.957784830830987e-07,2.8520006419477764e-05,5.0620782654540725e-05,5.2035601742649265e-05,1.529543859349575e-05,4.053241671803403e-05,-2.8359197729394223e-05,4.502995684255408e-05,1.855117552530462e-05,1.7004057151630686e-05,1.1051318287955243e-05,4.0444084394951606e-05,3.6407873323573654e-05,2.262855981680065e-05,4.4072924386254744e-05,-2.103700656830366e-06,-8.275858546354945e-06,-5.479500395781037e-06,5.6242982948632775e-05,-2.205921489983337e-05,3.193849687025576e-05,2.6962323380526743e-05,1.1068562018521345e-05,6.102967749839505e-05,2.062543324980967e-06,4.91109130019646e-05,1.561677171069621e-05,3.292451515368821e-05,-1.8870675758862786e-06,5.6412528676053234e-05,2.5037802213239126e-05,2.5812126511023882e-05,2.1215166675421663e-05,3.9848376365921625e-05,2.5276883838779254e-06,2.939754364949549e-07,4.050043780913828e-05,9.342840064984074e-06,4.405800277475817e-05,2.7409085927174506e-05,3.094195604974803e-05,3.989624055245723e-05,3.397725795613026e-05,1.0245725301373675e-05,3.300225632874084e-05,2.346638831620227e-05,2.5393374034289654e-05,2.6977528006131157e-05,7.648784092268254e-07,3.154300310321096e-05,-5.205784611403153e-06,2.04462875495467e-05,3.2723517246646046e-05,-1.7364789548937e-05,3.165621723812568e-05,2.5243068407862666e-07,3.2280098398543676e-05,2.5582715116082185e-05,3.845950056093925e-05,2.9258096768144746e-05,-6.2627664415080174e-06,2.7792820548178426e-05,6.397471266313253e-06,7.5575890591277195e-06,-5.31616164303765e-06,1.9316120982267488e-05,4.1029236688651944e-05,3.422342065595936e-05,5.651000060276025e-05,2.766766711375405e-05,1.612322733786455e-05,4.146105088867354e-05,3.592330124438156e-06,-3.697141134984377e-06,1.075393843434459e-05,1.1854858583150999e-05,-4.005162334810239e-05,3.55232237606892e-05,3.2207394408936546e-05,-1.5394720000650387e-05,5.545743924281939e-06,3.260551015292039e-05,1.559623629165604e-05,5.604694130187195e-05,1.8264366489176514e-05,7.399339547418401e-06,1.3414537246280482e-05,-6.681374357087818e-05,7.2375887698918065e-06,2.4104822676496013e-05,-1.4484129657002898e-05,3.748144447710197e-05,2.7270756367617774e-05,9.935205339137872e-06,2.5628960583055745e-05,-2.4170029948571584e-05,1.4375111742168335e-05,4.354727003010784e-05,6.283950207957334e-05,1.9098950887968658e-05,3.9877187747279676e-05,3.851029701441814e-05,1.0662367944478646e-05,5.8535720438931854e-05,5.219122492363446e-05,2.1793387286190944e-05,7.2522236180115795e-06,2.1525623329589426e-05,3.939023844304898e-05,-1.9685943841260222e-07,-3.065385442594462e-05,2.665688061193924e-05,4.732472841131522e-05,2.0848984424584053e-05,1.662047665092538e-05,1.8847851317487666e-05,2.5155400037949725e-05,1.390610669979735e-05,6.199937806968987e-06,-5.729402042791984e-06,2.1697485008039307e-05,5.967651118568574e-06,1.3367871023063483e-05,4.186993255480282e-05,2.385000433387854e-05,2.59072040131317e-05,-8.791252317994936e-06,2.2251664691063506e-05,4.18575631773879e-05,1.3029274984588087e-05,4.184720956273948e-05,1.070991406683333e-05,3.1286615703988246e-05,4.018847411231147e-05,4.5974021108866964e-05,8.075371426991109e-06,1.9503026361383928e-05,3.137201238237009e-05,1.902765009996941e-05,5.60753702837679e-05,1.687469252589132e-05,9.148495406743715e-06,2.608476145393195e-05,-7.128413466202642e-05,3.727399126245575e-05,-1.7293356391413124e-05,2.0547427348400944e-05,1.594897427430924e-05,1.5308738283212685e-05,1.986885388057219e-05,3.1889066581846094e-05,3.671048415886439e-05,4.7563109039368265e-05,2.4585624854419708e-05,-0.00011775805786713467,3.027715982257319e-05,-4.700197464427917e-05,-8.411252770210139e-05,3.717010412318097e-05,6.806011996130694e-05,-7.954972594694205e-05,-3.314067082589618e-05,4.1167290554588446e-05,1.6875394509829976e-05,2.7592832603072634e-05,3.693065770315065e-05,1.2614514177606579e-05,2.2932285066956223e-05,1.3209543836632857e-05,2.3869400798093575e-05,3.652470083169692e-05,3.815170891212107e-05,-3.6325438146105127e-05,3.371810261897371e-05
ABNB,0.00015800016973774187,8.322811105467423e-05,-1.6530573757738073e-05,0.0005099233179717143,-1.290237120729941e-05,-1.5050728700290748e-05,-7.781202435216799e-07,5.701125616763188e-05,0.00010857424467391178,0.00016381443772360728,2.4530282988455196e-05,1.0993186980799267e-05,7.190757368376128e-05,-1.8278267689457504e-05,-1.278658842464824e-05,4.886645032373277e-05,-2.3603568302008982e-05,-3.960756448528058e-05,0.00015417486264151137,0.0001532374644365622,0.00022534327473538372,4.979463088781798e-05,6.692140704757232e-05,-4.3838504763059945e-05,0.0001358088319058731,-3.1934110954707e-07,3.502717278771891e-05,0.0001497544931803079,0.00016756977850868531,0.00011324247155800363,2.617015630689349e-05,7.786180239286644e-05,7.557373457758199e-05,-9.614138163870896e-06,4.801405909755852e-06,6.220195360840589e-05,0.00014259453669102738,6.576000608468788e-05,5.454756782746929e-05,-1.2867520898242048e-05,0.00014072020357081214,5.240838403024793e-05,3.3812838685221085e-05,0.00013370462297320778,0.00012526704389675895,-2.229233186069073e-05,0.00010107219600891514,0.00010843659809069968,-2.111148930834227e-05,9.260787190133703e-05,2.5251687049543606e-05,-4.0203984081065816e-05,0.0002074588612008318,0.00015357332823658123,9.619728352277934e-05,7.323132143521058e-05,-2.0005922701000636e-05,-2.7983976766966334e-05,6.430947351791761e-05,-3.878622075098609e-05,5.725777044038944e-05,-5.539808276039398e-06,0.00011553506977834532,4.793435783307922e-05,5.9092488419302896e-05,0.0001383318689149307,2.021058734124145e-05,-3.236551603856123e-05,4.7502500224028364e-05,4.175109729831318e-05,0.00011255216537393043,0.00012190984335373663,5.9371012377035755e-05,5.50248801227239e-05,7.4994969391441e-05,6.740427900737799e-05,9.780839389366406e-05,6.55229946979572e-05,3.9162546380455096e-05,-4.688371488131264e-05,0.00013832761428582622,0.00010360321303495017,7.896295016805897e-05,6.165018715147559e-05,0.00023854178320352769,0.00012521214786417664,3.3694811144579984e-05,7.247198201199603e-05,5.560938200435302e-05,0.0001085296122560978,7.401125870623304e-05,7.957022948595166e-05,-1.551391654593762e-05,-3.3821065365476256e-05,2.2671881524508077e-05,-3.120140284978465e-05,-9.149490641679271e-06,9.855256803524752e-05,9.703909947298914e-06,0.00011055503595284175,8.451376303727153e-06,8.319025600224222e-06,2.9849340053648785e-05,0.00014410016844272023,4.118037567827978e-05,-2.3545361525657717e-05,5.378771138129621e-05,0.00011381131867443969,-1.911662344974823e-05,-1.994305174761593e-05,0.00011756373966090753,0.00012103168388602885,6.429511532350965e-05,-0.00014823244293793114,5.522179603234229e-05,3.867178128266807e-05,6.830994739090795e-05,-9.515208580523665e-06,0.00010570925831498286,9.228097645720999e-05,2.136396088090475e-05,-5.691719668376646e-05,0.00010506825125725001,7.790891646462771e-05,0.00011718196096830843,6.225827445539783e-05,0.00010447390821737686,6.807308483556313e-05,9.922556154933337e-05,-1.1153053494497436e-05,5.985565675682501e-05,5.07457894063616e-05,-4.8255219875568285e-06,2.9458654393362504e-05,0.00015894843010938779,0.00011008045267919174,3.2834818145979564e-05,7.501871453621685e-05,5.826111764882138e-05,2.3496125997627147e-05,3.814361378021053e-05,0.00021088889845222262,0.00011552600145002378,8.409594846220714e-05,8.44724685957918e-05,2.467267968016702e-05,0.00010097524861611938,-2.9320439109989727e-05,7.235913199409412e-05,-8.594706505411114e-06,0.0001230673216023159,-2.9190232992207455e-06,0.00014820494874200958,0.00017332599366510804,-1.7644980249653197e-05,1.7673890266166632e-05,-1.8144609230669247e-05,1.1039433270783596e-05,2.83638051949765e-05,1.2396347336722556e-05,8.080419000280573e-05,-2.0949949111187746e-05,3.2702735960525716e-05,4.194678479162031e-05,-4.82873316991375e-05,0.0001440543153699329,1.183202338454031e-05,7.640604169777411e-05,0.00020289968224995614,8.266743543149751e-05,6.587400058103297e-05,6.814663961965875e-05,4.037371171596217e-05,0.00011647852363088673,1.9706832076474414e-05,-2.847448767106549e-05,-1.5179054048118914e-05,1.2417865585419708e-05,6.619972882098069e-05,4.8385102918374566e-05,0.00015998502404891346,9.192686574174751e-05,0.0001005013216477753,2.8474778883319023e-05,-4.127777606138737e-06,4.409665888408689e-05,-1.866325967163839e-05,4.390594952797548e-05,3.691087673998061e-05,-3.5519109708554304e-05,8.980110786461214e-05,9.634673007513433e-05,9.133882075011872e-05,7.85102039987098e-05,0.00020580676991566318,-2.667741486039513e-05,6.524491541589867e-05,0.00012523100920971273,6.703668790133579e-05,-5.579921605246486e-05,0.0001264776718369581,5.58473060704828e-05,4.972894737916596e-05,5.1340270234405816e-05,8.322042958830601e-05,0.000274981115278413,0.00020036980016288587,3.340499785066934e-05,9.862298589519394e-05,7.368568000506136e-06,5.1771793310314686e-05,5.846448188959742e-05,-1.1216234310248356e-05,0.00010802950938312873,9.986908472114167e-06,-2.016850227508968e-05,1.0997875527807871e-05,6.40136460841894e-05,-5.137042057892259e-05,-2.5882136518679672e-05,0.00010121217726251321,3.787726401358307e-05,-1.9895579123222717e-05,6.889035182945148e-05,5.281187766966432e-05,8.334047991675323e-05,3.511593283356959e-05,0.00012801495696707177,0.00017133002334984493,2.6475176513953922e-05,3.483886103430496e-05,9.093562801118296e-05,5.72450867157949e-05,1.904819912771452e-05,-4.394884483185412e-05,4.5096766171538916e-05,5.977747369416844e-05,4.929947912569383e-05,5.11748951776536e-05,8.530756769061919e-05,5.605914367952295e-05,-4.0780823351856386e-05,3.716311153298159e-05,1.6724243925878148e-05,0.00019000301292058821,6.173252025193761e-05,9.936012685682038e-06,2.127854459737107e-05,0.00018241842919492735,0.00014705286204668873,1.5861911026558337e-05,-1.53816021296001e-05,-2.2007955786024475e-05,6.414123328496766e-05,0.00010277157265278571,4.9410338868211936e-05,4.702562818415413e-05,3.614901087451391e-05,8.948717703386465e-06,2.4207794309999377e-05,-1.0964965463541552e-05,0.0002309750423497849,-2.832093900390194e-05,5.7392285991918334e-05,4.273105224378834e-06,0.00013134642149642732,0.00017543114989465364,0.00015347120413635837,1.0152177927197497e-05,3.874054411457506e-05,7.75668632204002e-05,8.163605484463158e-05,-0.0005445012602102419,3.0035566177699287e-05,-0.00015987362785347705,-0.00036928160797779,3.7646172426603464e-05,2.7707220733078294e-05,-0.00036835263930312716,-0.00014237457392702436,-1.739181583187186e-05,6.549193016614707e-05,0.00014250943029560408,6.365820549324176e-07,0.00010664810391473719,9.528813626238202e-06,3.715737579638645e-05,8.284192796857096e-06,-3.635069805949021e-05,1.341119198692883e-05,0.00022770899371142223,3.046424940658118e-05
ABT,1.1655915753491878e-06,-1.234881381559447e-05,5.360715394741708e-05,-1.290237120729941e-05,0.0001406971358779568,2.6327491872949876e-05,1.7923682982907278e-05,3.467220820260721e-05,2.5912142220281825e-05,2.407921351110963e-05,1.899832374683812e-05,3.685529296993881e-05,5.137820756895311e-06,4.4269778667475624e-05,3.718196724930224e-05,1.272359796144696e-05,3.563749468807885e-05,3.012751418263434e-05,1.0757048235464506e-05,-3.255691498674095e-05,-2.8476181861084937e-05,5.241958342073231e-05,1.0842067040930821e-05,6.122323971720048e-05,5.742419880500887e-06,1.9235012476101506e-05,4.861703526742818e-05,-4.661279915151659e-07,-6.29700376922226e-05,1.3147353456094403e-05,2.762572114400885e-05,8.250304393153631e-06,2.289030810368526e-05,4.243112357530219e-05,5.7381878171573686e-05,2.413572474960725e-05,8.399174528080073e-06,-4.06824591451548e-06,1.1059016863394413e-05,5.018544385324796e-05,3.211597117144032e-05,1.458457496443855e-05,4.181484879476139e-05,2.1523427677639153e-05,1.0382433966755392e-05,5.077223341620287e-05,1.79807045830174e-05,4.089450943290818e-06,2.2095099666501727e-05,3.835624872238059e-05,2.6221538157857055e-05,6.662894221415339e-05,1.003145713822818e-06,-4.8206954613560135e-05,7.048483161802364e-06,4.528467782447596e-05,3.0281748762049694e-05,4.635110671666355e-05,1.2286006784386638e-05,2.0708155866982595e-05,1.1854274245671657e-05,3.7907682260496886e-05,2.6131123574041622e-05,3.228850650560505e-05,-4.24714053589044e-07,1.1313079785188286e-05,-5.848062115311628e-06,4.375108296491025e-05,2.2963014404419647e-05,3.295538288467539e-05,2.9133580131457803e-06,2.135840336080383e-05,2.798769129222546e-05,3.1801323528638195e-05,2.6843641174405517e-05,2.9083129616460596e-05,-2.0140501515169346e-05,2.6608581266788723e-05,5.381096229480495e-06,5.595106570323988e-05,1.6436601036866947e-05,-3.0000245991158005e-06,2.603404024407176e-05,2.443247180393996e-05,-2.5918307791858534e-05,2.6099627664603173e-05,3.433297804462932e-05,1.986406879580515e-05,3.9154986284492165e-05,8.231309464017362e-06,2.7079629418161504e-05,1.132037569495345e-05,4.641533260944176e-05,4.646172041079625e-05,3.00491766412884e-05,4.723152282643303e-05,3.3270341241524565e-05,4.237272354865428e-05,4.1218313893600806e-05,6.936710486327099e-06,2.5661090548527684e-05,-2.1851803084098136e-06,1.3817703905656668e-05,9.740927970828851e-06,4.346274564976328e-05,4.6195922740263566e-05,2.7979990602034905e-06,-1.0660497102571843e-05,1.7674283345545422e-05,5.016513282986766e-05,5.845065818433224e-05,-6.058322062874837e-06,2.4721404732724717e-05,5.342841977312165e-05,3.571846547459433e-05,3.857370167380118e-05,1.901713527649891e-05,1.6737136562286303e-05,1.9489216372781054e-05,4.720616924944986e-05,4.379409376492562e-05,3.4786300790425155e-05,3.24323704197664e-05,2.2846182563148417e-05,-2.1973898770524067e-05,3.3784349855879924e-05,1.6167303551280398e-05,-1.3365505994525945e-05,9.295914528044912e-06,5.457748957231172e-05,2.8696567664034097e-05,-5.8483275113766636e-08,2.619066783746381e-05,4.764234428949355e-05,9.99571714021021e-06,2.442179512984036e-05,1.841527328559074e-05,-5.477658590744086e-06,3.847408637332004e-05,2.9488461202867007e-05,-8.221919955566176e-06,1.862273017973744e-05,1.604529099104509e-05,5.333749468102776e-05,4.752267725110599e-05,2.823275149066946e-05,1.53027838376953e-05,5.7351221447179537e-05,2.592988832599812e-05,2.033340648423658e-05,4.920873349226348e-06,3.405122292778213e-05,1.7215006966220048e-05,-3.082060360989424e-05,5.0680850353488724e-05,1.1134655462097227e-05,3.776844681758626e-05,3.4599749477740156e-05,4.395846449889492e-05,2.4541100583216575e-05,2.9322195596308276e-05,3.366693974815687e-05,3.156924287723169e-05,2.6549210399733917e-05,4.297995823736673e-05,2.191924935168844e-05,1.3907535955638597e-06,3.1891692060357186e-05,-2.6882935234983178e-05,1.708718031193813e-05,1.303701516292248e-05,2.343624548591868e-05,3.702195676811685e-05,9.017287364853213e-06,3.4567182679262996e-05,4.0451358420623316e-05,3.9761751846680556e-05,6.627775983690641e-05,2.521060292843323e-05,2.6447690987695955e-05,-1.5359705001587792e-05,1.306000714248242e-05,5.272206507198456e-05,-2.7107774915799827e-06,4.1075346409777e-05,1.8807779010081077e-05,3.084055438608079e-05,7.281356642438458e-06,1.3985892882595364e-05,3.37306765526975e-05,1.9761721825502452e-05,5.137661230799275e-07,-6.856799956195545e-06,1.194226100716979e-05,-4.9449174593904764e-05,4.8536780040867345e-05,3.655896816978827e-05,-5.326113861288988e-06,4.037947795490359e-05,2.7832729739181477e-05,3.0590754468976835e-06,5.1929219011552706e-05,2.50890668149254e-05,1.6976867347916547e-05,-6.532525934462099e-06,-5.489445030873582e-05,-1.8408473828448393e-06,2.1591847204649232e-05,2.8583552667408846e-06,3.1011408515307247e-05,-1.934614951691641e-06,1.1324718223180098e-05,4.2179447208249725e-05,-2.3826168760624306e-05,2.4238508712058085e-05,3.633203240541795e-05,5.151668083665784e-05,2.9884985288897763e-05,4.365124104455901e-05,1.4202201120737581e-05,4.22237573644199e-06,7.8188209875346e-05,3.3787699454953985e-05,1.9715073127887474e-05,2.3088112360833135e-05,2.0386629922686052e-05,1.402770753524588e-05,2.2688798758902682e-05,-1.5929801152631943e-05,4.074330519725309e-05,3.382325631371066e-05,5.613424378447272e-06,5.436997484857357e-06,2.7054638709187203e-05,2.1450711765398962e-05,2.4554695182211807e-05,3.486105765087087e-05,1.9148902277383234e-05,2.7897400501358993e-05,4.198096079228328e-06,1.1997176262438285e-05,4.8182510166215636e-05,2.9657743010483974e-05,3.105553289365811e-05,5.258652067276804e-06,2.3189633267884696e-05,5.536473260133395e-05,-6.335750659212465e-06,2.1622307022038117e-05,1.1142086071878308e-05,5.976203072559115e-05,3.9594049057278775e-05,4.2480011986469285e-05,7.699793719196956e-06,1.813758881813272e-05,2.2148938190942915e-05,3.1184161947036014e-05,5.5375301205935015e-05,3.2381133417414175e-05,2.0831699054170037e-05,3.8828301034117374e-05,-6.417564986425998e-05,2.4692393947696726e-05,1.2904186098524488e-05,3.952893505811431e-05,1.2069149611794786e-05,-2.4254189143628498e-06,1.8382024539817943e-05,2.4258537043526448e-05,4.900303904710749e-05,4.6237997477243596e-05,2.775578231347388e-05,-5.680645413879057e-05,3.7728828854937384e-05,-2.5964404068744228e-05,-4.3043043928510936e-05,4.018905123222114e-06,3.168327170757136e-05,-3.8728239999885185e-05,-1.2500141701309853e-05,3.394971488460693e-05,4.234814535487891e-05,3.450567139610648e-05,4.184339958839076e-05,9.798131489687014e-06,2.5205309923105676e-05,1.453122589909609e-05,2.4110488849645135e-05,4.8251009902646346e-05,5.266826997057372e-06,3.44139687843357e-05,5.472254260183632e-05
ACGL,2.5012541029231585e-05,-3.832179039780067e-06,4.7716492963140654e-05,-1.5050728700290748e-05,2.6327491872949876e-05,0.00020453783014527075,1.1718880664935776e-05,2.503117449527483e-05,7.367152128066391e-06,1.8431776337272012e-05,3.3870250869972954e-05,5.257942880827091e-05,4.0669112331479526e-05,2.4326800624637815e-05,9.64640437015194e-05,8.817860806679217e-05,8.34567785190551e-05,0.00011685707395669046,5.366914913430295e-05,-6.090730877724055e-06,9.858736296730754e-06,2.9235501491161288e-05,6.960279182116947e-05,2.795001238131738e-05,7.94622731404366e-06,7.566569385495009e-05,7.443293974722481e-06,7.180433171241813e-05,-4.15323733396594e-05,6.001636282090992e-05,3.305945269718329e-05,4.788926925479878e-06,6.038985632969752e-05,2.2920900277142447e-05,2.615791757244912e-05,4.218388856823653e-05,1.0174391887285209e-05,4.049358788409179e-05,2.3266110499537353e-05,2.0305290690763987e-05,3.956497302048759e-05,1.4215094664915443e-05,2.793590520856219e-05,3.597005308209475e-05,5.7927858540193504e-05,5.024203673388594e-05,3.0157561690765622e-05,3.9322801881220666e-05,9.686030265535575e-05,3.186521529515645e-05,3.0592602136100476e-05,2.2524450221332176e-05,4.5471015737499275e-05,-2.1924929488131545e-05,6.627197657053173e-05,4.567838955259831e-05,2.9569426515756823e-05,3.508233800625934e-05,1.667898572642237e-05,2.667571765074738e-05,3.208977322800322e-05,2.5590597799962314e-05,7.894899933380096e-06,3.14500722962791e-05,1.624020335266217e-05,6.521959876137407e-05,2.60417499505178e-05,3.374901049936197e-05,2.5781768382421498e-05,1.9296113453369962e-05,7.423262242656289e-05,2.8274759329802853e-05,1.6841243386769408e-05,5.552172166978154e-05,3.1710325764891875e-05,2.1157564209127976e-05,1.702013256614337e-05,4.903476052241349e-05,3.47927248077497e-05,3.129641581841924e-05,2.171479221011583e-05,1.825346866770287e-05,2.5308347788880867e-05,1.6317524469479243e-05,1.966592762855543e-05,7.100042087714469e-05,-1.4531635125768693e-05,2.1288695849458658e-05,1.1656131634547765e-05,2.4501040086416325e-05,8.25935143481375e-06,2.234636505779115e-05,3.823862466575138e-05,4.3916073089588057e-05,3.547609628973641e-05,4.4737312734980736e-05,3.631379672027462e-05,3.238327869658662e-05,4.069662747408266e-05,4.421041077754706e-05,2.474832674134844e-05,3.141939207028999e-05,3.0416345095152173e-05,7.59337199756655e-05,2.0256165564236668e-05,4.320841056959299e-05,3.401875869587615e-05,4.78078019795967e-06,3.5422706972633255e-06,3.715083359087839e-05,7.28529592126588e-05,8.828194950695096e-06,5.994270284133939e-06,6.920665547621862e-05,4.577100944160899e-05,3.859157802216288e-05,4.936161760604518e-05,5.2994225994398306e-05,4.6491353414453836e-05,1.3791339196093089e-05,1.5723141609406203e-05,3.3579664768906004e-05,6.461187310790228e-05,1.9630785493164145e-05,-1.6837126654199916e-05,3.798238746829762e-05,6.460322674923957e-05,4.779249055451915e-05,6.17938583067824e-05,4.408935629687136e-05,2.214205869183166e-05,3.655138836708468e-05,0.00011974110795994878,3.072385313629195e-05,1.9031724804310237e-05,2.208439703361892e-05,7.883490249404126e-05,5.1236834758717115e-05,3.111837227453392e-05,3.777721354010655e-05,2.6689280903215634e-05,3.5498651803925054e-05,7.255965573946947e-06,5.0362564869009643e-05,1.6992245725893002e-05,4.1272185140262225e-05,2.801174829078087e-05,4.23246621179171e-05,8.022992691295749e-05,1.421537206565881e-05,6.252261177848292e-05,3.0819332653349864e-05,7.176956729325866e-05,-3.053414838943818e-06,2.440399712203122e-05,3.662327150587245e-05,2.476985328876198e-05,1.9350077193503528e-05,2.690758435256387e-05,0.0001011971041411823,1.990804739856143e-05,3.376738370074865e-05,4.6860808243681525e-05,4.034970551789485e-05,3.804493321557249e-05,7.574068317961622e-05,2.7184756321224696e-05,1.6729608556139216e-05,-1.0187689068133955e-05,1.9920905244592122e-05,2.8800449455330926e-05,2.657746803152206e-05,5.641581752196268e-05,4.756468124850362e-05,2.4086223600610435e-05,3.815367034461718e-05,2.3317473206649918e-05,4.7642593670564235e-05,2.825789472199716e-05,9.30993026297892e-05,2.70857646170966e-05,6.207870900692638e-05,2.8372315916548596e-05,8.945165584923055e-05,6.488948660284062e-05,7.009630931841784e-05,2.169498991099928e-05,4.006682475759184e-05,3.22076042519963e-05,3.701149484500354e-05,6.071717443993451e-05,1.3306243298298035e-05,-2.9562863521894653e-08,6.794340975637493e-05,-3.252353875596073e-05,3.3363439923653576e-05,2.6951534880123483e-05,1.9997949339383653e-05,2.029721990013574e-05,3.6025284793856895e-05,-9.404717243812639e-07,5.044464344076238e-05,9.905311879039053e-06,3.747875293850951e-05,5.3810491287287356e-05,-4.101773491478096e-05,7.356538494349908e-06,4.662282722537082e-05,1.9241990139464177e-05,5.462061990340395e-05,3.781258269151404e-05,5.328668009924062e-05,3.67666308860044e-05,-3.1334901026735985e-05,3.4027423611187765e-05,2.5259324508391804e-05,3.657054785187275e-05,7.416499739488716e-05,3.297644318833816e-05,9.916619280249317e-05,4.2906909118807374e-05,2.911724203264327e-05,1.7181448191139692e-05,5.287540147076498e-05,2.5241228226497418e-05,8.488075596019933e-05,4.635080426176958e-05,4.1016530323015437e-05,1.0975990930689843e-06,3.551789019598176e-05,5.117463339213052e-05,5.865273398144734e-05,6.195530136510626e-05,4.0017595659088135e-05,3.693128674713916e-05,2.450728143893807e-05,-6.744810073992267e-06,3.4746031849130676e-05,2.7655659537021326e-05,4.6413030870031884e-05,3.520179443272521e-05,3.3076270967482115e-05,3.806770664196426e-05,4.7432327728832546e-05,3.3442942575636396e-06,4.442926566947857e-05,4.171680185105902e-05,3.095025218924064e-05,6.78188957044628e-05,8.557979879879951e-05,4.67184546497141e-05,3.8138270939850816e-05,3.380675899581555e-05,1.2909222339836227e-05,6.355662657114635e-05,1.4963894688783487e-05,3.587134120009236e-05,1.435085677218002e-05,3.062277311606922e-05,6.237078931748534e-06,0.0001136460462009574,2.228462637189437e-05,1.9501553109027375e-05,2.303224077695051e-05,1.668560097372863e-05,2.627930541119215e-05,3.624525746327657e-05,3.287366412008904e-05,4.908613211275156e-05,4.308033053134655e-05,1.3508086733063795e-05,4.978045962053958e-05,-0.0001970723159904334,4.8652503961815666e-05,-7.025360909646854e-05,-0.00014083817314589677,3.764740616839273e-05,2.8618297336347387e-05,-0.00013066758213417921,-5.446639913091506e-05,2.256909623989299e-05,-5.163472152602957e-05,5.657678183775809e-06,3.495072817784686e-05,7.48283513188892e-05,4.3664151971581485e-05,4.1380377086080575e-05,2.37779575432293e-05,2.2667333745205807e-05,3.701765729690052e-05,4.469252443250677e-05,1.545529536584915e-05
ACI,-5.535672596492458e-06,1.7165291851876527e-05,8.885006625192191e-06,-7.781202435216799e-07,1.7923682982907278e-05,1.1718880664935776e-05,0.00013750040160176308,2.1351442137772916e-05,-1.7751931813781056e-05,1.612464987834588e-05,6.121547344381461e-06,1.2826342775871264e-05,1.7409139154458547e-05,2.1860451659234533e-06,1.722284440806407e-05,2.1636158527677372e-05,1.8026093487486046e-05,3.10194152786778e-05,2.846148018082293e-05,1.2035683386952439e-05,5.065621323008612e-06,1.9988669987597573e-05,2.1305530228432385e-05,6.925501966506032e-06,2.3239437922019952e-05,1.1120416682745107e-05,1.2046637380741724e-05,2.915902181049855e-05,7.037934883022565e-05,2.487544052279608e-05,3.846431643039881e-07,3.886863563567486e-05,2.2460758835639475e-05,8.21650247136303e-06,1.064251505602874e-05,7.105441189013916e-06,1.8165163517530737e-06,2.815261276899024e-05,3.3830485642904464e-05,1.870412951051953e-05,4.2699013528111505e-05,2.123752186798059e-05,2.894813715247221e-06,2.977391315227195e-05,1.6137370740404784e-05,2.2424900329393284e-05,2.6053475019254904e-05,3.465442563229122e-05,7.3728907628680685e-06,2.7336458169986282e-05,1.4322977376549303e-05,1.2367659118385593e-05,1.2477737895614976e-05,-1.4672562878938407e-06,4.2181790219349776e-05,5.644202915644196e-05,1.8701809739757745e-05,1.0211224847940235e-05,2.2344870632910758e-05,6.430267723777411e-06,3.3385276787370563e-05,9.93029011466558e-06,2.2888354115420098e-05,3.191319411513729e-05,7.97546676531242e-06,2.4573141119048715e-05,1.3148350231575143e-05,1.2926640477214087e-05,1.2081231492527325e-05,2.4457529087689984e-05,3.766620307506529e-05,2.128192754331784e-05,2.526403405397301e-05,1.7792069918026957e-05,2.8095168214591976e-05,3.389644280361969e-05,2.235356964522525e-05,2.335137532464668e-05,1.5051506603928037e-05,1.1096163554458261e-05,3.085394634030271e-05,1.8359038290380288e-05,2.1984308295462576e-05,2.898766631673223e-05,3.9231981295564735e-05,2.8304153956130503e-05,9.638834154317175e-06,1.7622468672259905e-05,1.4423370605469465e-05,-2.0215466165647834e-07,2.101155181264713e-05,2.1772285160309825e-05,1.0584599795977341e-05,6.035409356973635e-06,1.86063927515785e-05,2.076440276867186e-06,1.757057641089183e-06,4.136763639816946e-06,6.51813342529121e-06,2.902846990286389e-05,2.650923622237621e-05,9.423921602344047e-06,2.328585137205648e-05,3.530820713714295e-05,1.534884172298765e-05,7.774246948480713e-06,2.288723190129358e-05,3.234664135123687e-05,1.4996031550169995e-05,1.7445745956369872e-05,2.8617270785140693e-05,3.568608720942485e-05,2.51294437202545e-05,0.00010081116494313795,2.1246005976974035e-05,1.805227121204254e-05,3.147691905968412e-05,1.6269797706874066e-05,3.289519397189085e-05,2.0688794761301844e-05,1.708556757538342e-05,4.93643855092145e-06,2.453437989986157e-05,2.954012039054263e-05,1.4716364931494214e-05,3.513683537040315e-05,2.7734859761864352e-05,1.5909849394354165e-05,3.586996962846739e-05,2.0985446038507873e-05,1.5559614580917642e-05,2.3338476403627437e-05,1.9375799759847554e-05,2.4469961848371288e-05,3.372998425838741e-05,2.2048161616649466e-05,2.5201234114599297e-05,1.1530670322887153e-05,2.035570331267762e-05,1.2346630747730123e-05,-1.7071635920082791e-06,1.2564067994599025e-05,6.9061660868885e-06,3.1597800011590586e-05,1.725025620627254e-05,1.4953112511329367e-05,3.648702588043407e-05,1.0906207591261669e-05,2.4945516675582702e-05,8.690025256438457e-06,3.586892510738765e-05,1.3519474268531486e-05,2.4733528178975666e-05,1.3363919526802807e-05,1.3844488935132932e-05,2.1078531986794505e-05,1.1830447691997178e-05,2.936235162581969e-05,2.0549218049735602e-05,2.4292101940897784e-05,1.9650528903509934e-05,1.033308908841957e-05,1.210565771344427e-05,2.9895355226139246e-05,1.3898733744599435e-05,5.4565983462343765e-05,1.0524665076969844e-05,1.5605759817638722e-05,-1.2045782867791924e-05,2.1093039024080448e-05,1.5616782444109844e-05,3.357731549680815e-05,1.35285968581357e-05,1.9032528863843117e-05,1.725340752183749e-05,2.594186086209689e-05,6.532190205628791e-06,1.6192329470075252e-05,-1.6965155730352438e-06,3.6432079585943866e-05,6.1885752095078205e-06,3.329039657830914e-05,5.4850605644652815e-05,1.7197226826842575e-05,1.6797994489817416e-05,3.963401266221452e-05,1.3116548506028608e-05,5.910130253156889e-06,2.5901072943532187e-05,1.3336552639103324e-05,3.270026062703077e-05,7.354055910292862e-06,3.766344048819611e-05,2.6473263900793625e-05,-6.812528271760762e-06,1.2084028160822644e-05,2.6842891437118378e-05,2.021357113925934e-05,1.7591858489625422e-05,1.648237395846769e-05,1.163828306051437e-05,2.667527899969145e-05,3.6780972245413745e-05,2.5975989977029035e-05,8.407069142336712e-06,2.9821883490279438e-05,8.274948024769814e-06,1.2876493281854591e-05,2.853159841473819e-05,2.634853560291891e-06,8.875437336962799e-06,9.300649115859036e-06,1.8563356962494735e-05,2.5001128011702316e-05,1.5399041311122647e-05,1.0234030643330581e-06,1.7719335215741288e-05,3.289165230287106e-05,8.807129438103516e-06,2.4485133657100877e-05,2.4620658050804377e-05,2.5516824017436104e-05,8.0867583634458e-06,3.2097334991540395e-05,2.052641576722051e-05,3.0099253601490594e-05,1.6120787752156605e-05,-3.0182782600097776e-06,9.378825616266425e-06,2.5521052074448342e-05,2.0400369045213017e-05,3.660423257098594e-05,2.0169183032388182e-05,3.4859029351592567e-06,1.4173863221831798e-05,2.222349388936164e-05,4.746612864799893e-05,1.4358067258911545e-05,2.295169768140279e-05,2.3198829925541505e-05,3.2754149545394357e-05,4.807123787606722e-06,1.2132107615477564e-05,6.332299327240324e-06,-4.56884942080841e-09,2.8510821691203424e-05,1.4641025173809925e-05,1.1894746824064918e-05,5.9305213022255863e-05,2.2361437271102375e-05,1.226052119045503e-05,1.0458866516648975e-05,2.3960766712357576e-06,1.650067340805168e-05,3.267265044794747e-05,2.9324342589494292e-05,3.756004037768146e-06,1.3734964201619369e-05,1.7372540115898356e-05,1.8561297895370397e-05,1.6093659877825095e-05,1.13390904454545e-05,6.392929250002504e-06,1.9137408590398792e-05,2.8685214584599413e-06,9.764450113989846e-06,3.497918041732282e-05,2.378455999640961e-05,2.5177501615196557e-05,1.699196093441747e-05,9.906531129451927e-06,3.901491172638867e-05,-0.0001710360973019009,9.33455272411674e-06,-5.5741384145684216e-05,-0.00012032794224585612,1.668638988936561e-06,1.83270524059522e-06,-0.00011676244506006068,-4.506595548860848e-05,9.840980823012087e-06,3.6611052478378514e-05,7.39391337018065e-05,1.1983488274245757e-05,2.866576329303975e-05,6.86074575065183e-06,1.8783993970006108e-05,1.2870054728828256e-05,1.253188500162971e-05,6.73225515012838e-06,3.631302675395386e-05,2.657255752890243e-05
ACN,6.0066343991412195e-05,3.8230197445647836e-05,7.6101741667956275e-06,5.701125616763188e-05,3.467220820260721e-05,2.503117449527483e-05,2.1351442137772916e-05,0.00024003120708805719,0.00010632524485487435,7.288165659702584e-05,2.1505939317170967e-06,4.133868348349078e-05,3.6423978408736645e-05,9.89335645896516e-06,2.816869733195747e-05,2.506462030299354e-05,3.733776714464973e-05,2.5048717441903176e-05,3.883619304666739e-05,5.406302365797308e-05,8.719604347945393e-05,4.462382514586535e-05,4.050566387212108e-05,6.111207946010233e-06,7.595137490447802e-05,2.6087759144285113e-05,2.2991807822426482e-05,6.48210081895337e-05,5.242370854980587e-05,4.692763046125298e-05,3.894749247257632e-05,2.819968672479039e-05,2.6038267120468845e-05,1.7601096422774536e-05,3.2211138258860646e-05,3.054622862164966e-05,2.794288785299509e-05,1.8847934286168962e-05,3.423833919375502e-05,3.44291773580795e-05,6.583455601903152e-05,2.745111518958108e-05,3.364589402161328e-05,5.570254151701264e-05,2.921036044659171e-05,2.6898248697748087e-05,4.392491404403889e-05,5.604083369233461e-05,1.934558717257417e-05,4.7114747152981164e-05,1.704492759937345e-05,1.9220849185831126e-05,7.58957040613975e-05,2.3646721321296798e-05,3.499275585170006e-05,4.7936504762440236e-05,1.0547909484366818e-05,9.392607840490129e-06,1.99026746832834e-05,1.4261713891595523e-05,4.052122705055956e-05,2.0658505447548946e-05,3.249482446368227e-05,4.0766348939275975e-05,-5.622438585174822e-06,4.933936345295211e-05,-2.276216059028566e-06,2.9550200082155674e-05,4.0638892839658075e-05,3.755373145296341e-05,5.1707058126486465e-05,0.00011850485317077097,5.0384846594072614e-05,4.162567559967323e-05,0.00011994433936679027,4.8580435628959953e-05,-2.960942295494166e-06,1.622241218101887e-05,6.861028348397927e-06,1.0442950306430096e-05,5.766274868829962e-05,9.267998338470806e-06,2.6047528475562204e-05,4.157779586522233e-05,6.792736920795443e-05,5.0991821842837105e-05,1.3765354969303403e-05,3.496641785495171e-05,3.666525941836509e-05,2.520270289544772e-05,2.504848274438182e-05,1.693242389467382e-05,2.0668773028126583e-05,1.477718559491442e-05,2.7141275773935626e-05,1.0063863922126064e-05,4.2359905767986245e-06,6.783714061360909e-05,2.3728873455413375e-05,4.8275859578905045e-05,1.8512955165125343e-05,-2.028805181937669e-06,1.907425239927238e-05,5.907751688024837e-05,4.609933864230733e-05,2.3955528525626754e-05,2.553029994071603e-05,3.595565881344857e-05,1.3358839465298027e-05,1.9085190215343725e-05,5.577073599143116e-05,3.841628100347664e-05,3.664989898324501e-05,-2.2021166276956516e-06,4.729892512486217e-05,3.1773309706975894e-05,4.514225311290016e-05,3.400097088666029e-05,5.202434566993701e-05,3.431477665951997e-05,5.4818816850967776e-05,5.195573910952304e-06,1.7244280164695798e-05,3.810973066203336e-05,3.638633484857332e-05,6.019485486177144e-05,3.938297741339906e-05,1.6182153055815484e-05,4.401317904742318e-05,4.45401776012719e-05,2.6966626018475826e-05,1.254763027598097e-05,2.644752536055181e-05,4.984136364691058e-05,1.8925048645165484e-05,3.2307093269958564e-05,2.0741117348909686e-05,3.318507666604036e-05,0.00011183319781149605,2.1934457226056912e-05,1.4591746912872174e-06,9.835433036679123e-05,7.52155924721701e-05,9.165769071353362e-05,4.997958544554856e-05,3.1643069393548784e-05,6.0205607668973934e-05,1.6377471501823898e-05,3.258936112424307e-05,8.017939504363861e-06,4.242945687714825e-05,8.217486120038091e-06,5.5045411943858696e-05,4.448920886310731e-05,1.718767876209071e-05,1.3052700566617258e-05,1.183845611046053e-05,1.6103741537285774e-05,2.31474022735745e-05,2.746057749122045e-05,2.8038991023037574e-05,1.9149537552858494e-05,3.123068784244034e-05,3.362067891025611e-05,5.835063926870561e-06,2.849146531187952e-05,7.950031680077478e-06,2.799654747760493e-05,4.181470593645918e-05,6.10663292268716e-05,2.0813743626060128e-05,2.061696591828287e-05,4.821714160599787e-05,4.940049785233462e-05,3.184233363592849e-05,2.9692235304774468e-05,3.8641322728325836e-06,2.4757632772696163e-05,8.007851346982882e-06,4.063407972358602e-05,5.031700845633243e-05,4.877055886763629e-05,4.323670455736439e-05,2.134712869356772e-05,3.511471594084949e-05,4.0320311990670156e-05,1.599851283710376e-05,3.1300389779492904e-05,1.3599077321023416e-05,2.5880843240187357e-06,4.829643494907644e-05,4.408306161313021e-05,1.6020847445880518e-05,3.970932989299862e-05,-2.67134828529025e-05,3.174911700102586e-06,2.577278034206711e-05,5.481240464400776e-05,4.170818466378632e-05,9.67831508363415e-06,0.00010015503743363027,6.130896386861261e-05,3.4582692552362275e-05,2.5520995035509154e-05,5.3518134760553694e-05,7.497357610387992e-05,6.549673106935941e-05,5.278107031112475e-06,7.946248063437112e-05,4.65982422714352e-05,-1.2783314039197336e-06,3.901739997026268e-05,1.563490953518607e-05,4.668768465362853e-05,4.967404898007802e-06,5.714916919321047e-06,2.5446124072399395e-05,3.84901134471704e-05,1.3528432650234791e-05,1.9025875620074205e-05,5.2981102782164744e-05,2.9121187403453485e-05,3.0905057599735667e-06,2.6920284780058208e-05,3.460557226293944e-05,3.92638748466285e-05,4.0313044568701796e-05,7.294698300616573e-05,4.986043674893641e-05,4.3729087281718685e-05,3.8676152964658566e-05,4.178124677030194e-05,1.647234314882888e-05,3.493066084110142e-05,3.130965073988989e-05,2.3353660945815787e-05,3.990356302494889e-05,1.3601879222779962e-05,5.269239532054019e-05,3.601579037600041e-05,4.1389557576045827e-05,1.3981285597069928e-05,4.410005081228774e-05,2.0096582156639544e-05,4.7215942138931053e-05,2.3885527937144257e-05,1.3564126733693771e-05,9.083403302342912e-07,8.071127141754632e-05,5.7395483698701096e-05,3.2742827173551374e-05,8.698949023008303e-06,1.2537871647508415e-05,2.4414349228974038e-05,4.035511743403693e-05,2.2654403182005746e-05,4.398400605576133e-05,4.965011179707739e-05,1.1658542176758099e-05,2.2263730388062558e-05,3.61803129057969e-05,3.387244900074147e-05,1.0668821591025458e-05,2.7361829070302317e-05,3.2629612574025876e-05,4.348784488175774e-05,8.172048413901173e-05,2.789248534354145e-05,4.2383629636781926e-05,4.7418954275122856e-05,2.546261645055857e-05,4.4879841993289275e-05,-0.00022796859483726294,4.654377637976197e-05,-6.368978134597916e-05,-0.0001611786688357857,3.97705674346787e-05,1.274406864440962e-05,-0.0001545054705644658,-5.285653129842612e-05,1.0661999549504555e-05,2.8220239800675723e-05,6.164511741469478e-05,2.609902292983121e-05,3.6995401312047206e-05,3.811367959469741e-05,6.549306864298583e-06,3.1796562680609834e-05,2.1229309850939173e-05,1.3658532095356676e-06,0.00012963696892923186,4.439256834631255e-05
ADBE,8.900024767254034e-05,5.952532706193332e-05,2.0995936043317985e-05,0.00010857424467391178,2.5912142220281825e-05,7.367152128066391e-06,-1.7751931813781056e-05,0.00010632524485487435,0.0004846582401424288,9.276865725972001e-05,6.135447480681634e-06,4.329061858969014e-05,3.6525260902176796e-05,-1.6192550200864388e-05,1.2488910570087091e-05,4.64500444930318e-05,2.0918369727841308e-05,3.5690879357978664e-07,7.405452879432889e-05,0.00014080084403758067,0.00012994076015155704,3.063150517761891e-05,4.0724622658192223e-05,1.1110536842964822e-05,0.00015316852185883067,2.8914612228664122e-05,-1.9106669724827665e-05,8.726033848623266e-05,0.0001867614881345699,7.063522359528046e-05,1.931878656161762e-05,-3.2884923160085703e-06,4.04097832809161e-05,-1.6001646494226166e-05,6.250345984311899e-06,3.983218424054185e-05,7.009382413186104e-05,1.4139880375707322e-05,3.5891362174874136e-05,-5.763685448347001e-06,8.224455602546922e-05,2.221539860950223e-05,4.725237749210616e-05,6.34723041726256e-05,5.013880145091732e-05,1.554192179209164e-05,9.493527061608883e-05,7.303721458940801e-05,1.4280639667224416e-05,2.5957798852392154e-05,2.7553458695001746e-05,1.1328877135830602e-07,5.9314586145251674e-05,2.191053353353463e-05,5.203407073023053e-05,6.279631977368727e-05,7.652638245539299e-06,-4.5393983557289356e-06,2.6736147891482256e-05,-2.4338325906980942e-06,-8.641735843392467e-07,2.1540513982099807e-06,5.1871077997839766e-05,4.276446431974022e-05,3.178557428939733e-05,7.287699984484135e-05,8.777915466805843e-06,5.524826349275209e-06,6.870587655977504e-05,6.012684394119531e-05,6.473932114079492e-05,0.00021129485950462055,6.566238463422365e-05,5.6552092939601094e-05,7.802750765605556e-05,4.908067060974569e-05,2.9414528095891588e-05,7.361957780306121e-06,2.079722715142078e-05,-2.8550978033879723e-05,6.058762454611496e-05,2.208179180660453e-05,3.249268705120113e-05,4.71295604258063e-05,0.0001810047996686963,9.671769423941174e-05,-7.386065152140661e-06,3.721001931412058e-05,3.5532492225378754e-05,2.3728514486151663e-05,2.4633217751249336e-06,1.619677254761885e-05,-7.40881489044099e-06,1.468729763225164e-06,1.7015477951291512e-05,-1.507045177852383e-05,-6.511766924343574e-06,5.23667211495803e-05,1.2940081243762528e-05,6.576983843361834e-05,9.605483377949487e-06,3.405655576293507e-06,1.885189825323034e-05,7.388494065594472e-05,6.197945119219607e-05,-6.598495052171224e-06,2.281823186815038e-05,8.379923265716514e-05,-1.7216364837376184e-05,-6.786112740241823e-06,4.7260539417753843e-05,3.080943968459055e-05,2.486203961444877e-05,-0.00012665875336426947,5.077825614859727e-05,2.9577626989641478e-05,4.5096307053902544e-05,2.7560273883685978e-05,6.514638953737823e-05,3.09350154948763e-05,3.96826573862509e-05,-4.0203085873084476e-05,2.4858384015217637e-05,2.018052229580301e-05,0.00011680546550180806,0.00010231532665953681,7.220742109129903e-05,3.415369881308893e-05,5.3114809297047895e-05,1.0740407994110858e-05,4.268588270943225e-05,2.341499516411336e-05,3.321329885825874e-05,4.151007134735243e-05,0.00010563889422545102,4.864672708750859e-07,3.908109154722877e-05,5.3783257347848e-05,7.494917757614227e-05,3.472571813057033e-05,5.2966353415516356e-05,0.00015204634529870787,0.00014355210516046266,8.578153062363428e-05,6.58390303034964e-05,1.1686072316234467e-05,6.419794501555223e-05,-5.74827846078227e-06,5.042377972825129e-05,1.5911755150941592e-05,6.830728684737523e-05,-6.269395576085268e-06,8.551461648433107e-05,0.00014170593324205365,-1.2908919519144088e-06,8.228645544100181e-06,3.241644196302404e-07,7.439558456881825e-07,-6.827735333643127e-06,2.44393193076066e-05,3.6617224646282234e-05,3.853590068338577e-06,2.680589217706729e-05,4.953620838299244e-05,-1.1290571885457532e-05,5.719455693359971e-05,-8.291332191885257e-06,3.833635558235627e-05,0.00016504022795586063,8.92761636508872e-06,1.4069052840475475e-05,1.0563999555587367e-05,5.420240279266215e-05,6.547048368581404e-05,2.7994494767026377e-05,-6.661860745272593e-06,2.791088397722953e-06,2.810184736013028e-05,8.206930833053522e-05,2.2426946865051408e-05,0.00012132747211144751,5.865749361950369e-05,2.5060446288604627e-05,2.4892440535788324e-05,1.4232350712642592e-05,4.5444799590163904e-05,-1.4756682700692877e-06,4.483975670182299e-05,1.6255749166737045e-05,-2.8658409035066555e-05,6.012265126105375e-05,0.00010977254177676708,1.0605073163235635e-06,3.024203730839581e-05,0.00012313124020416977,-1.3164769039865345e-05,3.3213622238325984e-05,0.0001284186664123362,3.399390659927993e-05,-8.192437305049093e-06,0.00022276218139804553,8.249902609665734e-05,-4.936327956371566e-06,2.4834639791173494e-05,7.108169943761182e-05,0.00020115491800298108,0.00010365827983703026,9.206588324859055e-06,0.00014314557283860336,4.010619596525554e-05,9.256336520329143e-06,5.640201835600126e-05,1.4191498773541146e-05,1.5332843561322297e-06,-4.25480572709499e-06,1.2974227144452513e-05,-7.446474953226112e-07,2.4968181525415703e-05,-9.108318457775905e-06,1.237778500311293e-05,6.526702446388414e-05,5.0021638823454714e-05,3.2538444710315746e-06,4.644317730421771e-05,1.937956782158831e-05,4.415729089445739e-05,2.5732152375885127e-05,8.844751473136798e-05,0.00011779897664398842,2.727195509325285e-05,6.401445967356867e-05,5.827933973561671e-05,3.323570858072348e-05,2.796394772857209e-05,9.910810725177077e-06,2.7353545694390978e-05,2.4780949538315028e-05,3.538037560609193e-05,5.1083964773207e-05,5.524671661471842e-05,4.0231806511721755e-05,-1.0535844969269912e-05,5.4868076295478674e-05,1.1580090244273484e-05,9.212362286385099e-05,2.803377813733726e-05,1.9148661354703353e-05,2.1689444655033275e-05,0.0001668463543517505,7.569022039796926e-05,5.537716012310677e-05,4.040969556653265e-06,-9.100830641702692e-06,1.4111173785171345e-05,5.133386868297697e-05,4.6171348675856875e-06,4.7538968046752464e-05,4.466566152369242e-05,3.779750138083649e-05,4.765793622545997e-06,2.2213529025614428e-05,0.0001129020065595234,1.3544873635932637e-05,4.897309938712605e-05,1.7772431487962817e-05,6.13899297497671e-05,5.420952598268434e-05,7.57865899909376e-05,2.1681120616769608e-05,4.735295897700332e-05,1.571746416831473e-05,4.267278084031902e-05,-0.0004936262715445209,5.2625465580579256e-05,-0.0001391521246757273,-0.0003331491443730111,5.322306539908676e-05,4.117760440603649e-05,-0.00032726260177298603,-0.0001254148491664386,-1.4693684486791935e-05,-5.999510705161455e-05,-7.659601859718341e-05,2.7442332759109674e-05,4.189424327246729e-05,2.859482701275266e-05,1.1696125456084678e-05,2.833886272426751e-05,-1.042241881588465e-05,9.200858130596661e-07,0.00020569178751274946,3.0426203427466305e-05
ADI,0.0001342407856393106,9.77314152280604e-05,7.939503311313222e-06,0.00016381443772360728,2.407921351110963e-05,1.8431776337272012e-05,1.612464987834588e-05,7.288165659702584e-05,9.276865725972001e-05,0.0004233817917611349,5.754296017799256e-05,5.201383112714617e-05,8.544634573565646e-05,-1.4196329909453481e-05,2.6683780869641946e-05,6.330667704095178e-05,1.1703518452497342e-05,-9.94809397110865e-06,0.0001630247391934983,0.00032453025673229163,0.0002948552459961768,6.732645696873053e-05,9.09300721559403e-05,-1.6234693857737912e-05,0.00012311397567495215,1.0202558882018252e-05,2.8855847822645582e-05,0.00011991413745826624,0.0002866087148687626,9.654227174292955e-05,3.4979358870561447e-05,0.00010078161241006378,8.23958971444216e-05,3.139620699227702e-05,4.596652047087013e-05,7.083342099710785e-05,0.00010708769660770954,8.902162898275751e-05,8.426069780793543e-05,7.5809007778417715e-06,0.00016179119654282785,6.143727199132646e-05,4.532015142220346e-05,0.00014740990950866674,0.00012009358510814739,6.622233413944018e-06,0.00015636193666524235,0.00014679566246480173,1.1932665260626926e-05,0.00010290167062127041,4.2701109107043804e-05,1.1280611867768898e-06,0.0001331889487153051,0.0001113716495963581,0.00012026753749434706,5.2066667121090547e-05,2.115320663291775e-05,-3.70582376358606e-07,7.343776577155215e-05,-2.608523365538888e-05,8.64803914153046e-05,5.298165922582929e-05,0.00013883110419845467,8.591701494319991e-05,7.881109101345776e-05,0.00013112330900030714,3.3364261934789445e-05,3.7599549009621526e-06,7.312178153088004e-05,9.050059582588085e-05,0.00012410250849924416,0.0001140202414849293,8.29309731217593e-05,7.518298865855465e-05,8.396967427492917e-05,9.898883211092043e-05,8.255678072433864e-05,8.308600565277916e-05,3.9552201827260264e-05,-1.7575448727692513e-05,0.000123012250533361,7.131971495751448e-05,8.164054084299898e-05,9.887530029622306e-05,0.0002452224292064114,0.00014609538557415762,2.509896623601691e-06,0.00011092935175235306,8.32123642654568e-05,6.156439150805386e-05,3.578264725712539e-05,9.385598056597274e-05,1.2444685935093993e-05,-1.4634800628820502e-05,3.91460017874258e-05,-9.925351528007048e-06,2.8077352473347434e-05,0.00013595771378616627,6.104781513553377e-05,0.00012613652521991907,2.6131443139759097e-05,3.714396094029152e-05,3.376650483276327e-05,0.0001244642020490062,7.124818768920323e-05,-2.704766932586715e-06,5.3793928998084194e-05,0.00017093723189254365,-1.5291288736675045e-05,-1.040476522685847e-05,0.0001440239862599699,0.00014957238014918077,7.725389909130052e-05,0.00012705877169622435,7.188335835391196e-05,5.111251713680537e-05,9.147138792351284e-05,3.1486090699564283e-05,0.00012495065289261598,7.806298208860259e-05,2.9664037542056577e-05,-8.956366915599527e-06,0.00013190580005772187,0.00011977188403934392,0.00010465359360732352,0.00010149483891938647,0.00012444985079127733,7.90180436049939e-05,0.00010006210911545015,3.357451090722483e-05,6.275560980842657e-05,5.025836742685394e-05,3.0615327476389665e-05,7.340439852938788e-05,0.00018323182001889714,0.00015997857026178248,4.529943502055925e-05,5.422456722933311e-05,7.303346880037183e-05,3.5960052665747544e-05,5.572510921683022e-05,0.0003180880942993706,0.00012747954716742577,0.00013152248376461847,0.00010767899873548943,7.663359019299725e-05,0.00015108224339586062,-3.2550083410119544e-06,7.064804092177517e-05,2.1975915528767333e-05,0.00014644582291035996,3.744551334543952e-05,0.00015971871263721407,0.0003548703728552192,2.0802725333944767e-05,4.1915803281593296e-05,6.256129449760536e-06,2.2662943390215536e-05,3.9092365431252164e-05,3.146427381987431e-05,0.00010080337207021129,9.265771525593127e-06,4.758813669577787e-05,4.424389129483874e-05,-1.3024016706221009e-05,0.00012542922834256616,3.5497111955303185e-05,7.476156098156914e-05,0.0003462046616640482,0.00010449078189249072,7.360298815336479e-05,8.254282172516137e-05,5.341357313957513e-05,0.00010284328927950204,2.190302177329046e-05,-9.751184737961863e-06,2.4209717292760204e-05,4.205975593092988e-05,6.750143669488891e-05,8.68228573766903e-05,9.529975437717063e-05,9.964190253895991e-05,0.00015250390171349758,5.887841220315046e-05,2.106275952579721e-05,7.549588851229799e-05,-8.033551289973864e-06,5.570354407572978e-05,3.2679062006200986e-05,1.0412358714437384e-05,0.0001182152403758823,0.00011023782563692718,0.00010101739042832715,0.00010259889004152347,0.0003056287469026501,2.317174843994243e-05,9.822017397339569e-05,9.930457171249603e-05,6.684508854066724e-05,-1.8162233992450934e-05,0.00010505181022713835,0.00010136972382003396,9.634779229224217e-05,9.924596374532577e-05,0.00010795415658269205,0.00028054945305326943,0.00037498598015785445,4.137704320864529e-05,0.00013813973511619108,2.1845649199061423e-05,7.096348731323884e-05,0.00012470288543854638,3.145303008385587e-05,8.798001304372088e-05,3.1343009411727875e-05,1.2491388465027621e-05,5.068650471861522e-05,6.24264486364412e-05,-5.884266601533857e-06,-1.0760016296247546e-05,0.00015554239832458157,8.546038459339024e-05,-3.500134560778384e-07,8.351138736532884e-05,9.231252803396001e-05,9.38354515096658e-05,6.882666589290064e-05,0.0001213042845943119,0.0003079495090110634,5.9649881509005904e-05,8.497779105141073e-05,0.0001087576058662749,5.984600672509012e-05,3.1952153274589325e-05,1.5951918664865035e-05,7.51750750167059e-05,0.00010250755895449724,4.674234984432056e-05,7.270759421833637e-05,8.00934932164648e-05,5.3563076294961046e-05,-1.1308774595623899e-05,5.8109542038951066e-05,3.6552945132365456e-05,0.0003570979263903684,8.125375827806109e-05,5.4759544436102906e-05,5.254200889398334e-05,0.00024494516407998294,0.0001405640909040169,5.8799570699031216e-05,1.121607529801817e-05,-7.100364956166705e-06,6.14043389849747e-05,0.00010643767509996964,4.234556432092699e-05,6.662396984245853e-05,8.118826117083207e-05,1.8500747862077122e-05,3.0273902160931324e-05,3.358695241163562e-05,0.0002681707088997,-3.1178352294550734e-06,0.00011059404318562556,3.592396638200827e-05,0.00031056440159477826,0.0001526344385132475,0.00013783035011479536,4.299446932862464e-05,6.698840992945795e-05,9.042146215972598e-05,0.00010282142407991593,-0.0007121975701708095,4.318868030239151e-05,-0.00020083148417023402,-0.0004841076406376342,6.352442785494408e-05,6.496536170048671e-05,-0.0004829964717585634,-0.0001870367101173417,5.9758598172926635e-06,3.92265796426756e-05,0.00014271127236168855,2.093925966568804e-05,8.445841445050431e-05,3.107208258514493e-05,5.34494853461478e-05,2.0629341749647784e-07,-8.18309660760512e-06,2.7422091369783392e-05,0.0001813907365118806,5.849999125262721e-05
ADM,4.55609648232679e-05,-6.9548501079148045e-06,1.3923593849848496e-05,2.4530282988455196e-05,1.899832374683812e-05,3.3870250869972954e-05,6.121547344381461e-06,2.1505939317170967e-06,6.135447480681634e-06,5.754296017799256e-05,0.00042746121849449406,1.7571742943103385e-05,1.915146491941948e-05,5.1331635625070204e-05,2.8586413430035114e-05,5.8717478440615875e-05,1.949689639777342e-05,1.6312047108277178e-05,5.4804538588758694e-05,-1.9319545241653676e-06,4.1840058927011646e-05,4.297855532783888e-05,3.2929856345067187e-05,2.2796681008083655e-05,9.110084515878426e-06,3.3862667218168365e-05,5.384633366492289e-05,3.626290586544398e-05,-6.365376540297139e-05,3.503201511538879e-05,1.3204464064970341e-05,4.066460288391873e-05,6.046192210190045e-05,3.918675580732801e-05,4.3050901980270655e-05,4.427578934599794e-05,4.608412222078477e-05,6.069808694893875e-05,4.679594601658833e-05,5.713199089237949e-05,4.037618118917909e-05,3.5600773671834576e-05,6.466819367829567e-07,3.8815613133199885e-05,4.723476959629146e-05,3.1213848323462128e-06,2.2693636877539338e-05,5.408292505826315e-05,4.1143936245357516e-05,2.738137164561583e-05,3.3313575138349975e-05,2.4369290749387385e-05,6.109911618187535e-05,-5.313373599646965e-05,5.1688085480863026e-05,5.153054934150395e-05,4.048968740063056e-05,2.786190897926245e-05,3.1392841520214366e-05,-2.522223443512736e-06,8.319727803225384e-06,4.020753031735966e-05,8.898428588100328e-05,5.363581249046195e-05,6.479804783090708e-05,5.050659059211995e-05,6.512476112655848e-05,1.6504327256839693e-05,6.8756109789458475e-06,5.379590023233489e-05,7.645306361152505e-05,2.501101550239812e-05,1.4500140277475112e-05,4.515676747098181e-05,2.4260234545853203e-05,0.00010121174362405208,7.135285193089796e-05,5.551732390458723e-05,6.914184191411326e-05,5.342278648178815e-05,4.5364321030424264e-05,4.2834374053504943e-05,2.3260691325840762e-05,6.96688227489052e-05,7.552722700482958e-06,4.978273656230588e-05,3.478458469110965e-05,2.994099533936231e-05,1.8329719748479804e-05,2.2575394921022665e-05,5.214490734235399e-06,4.240591371285722e-05,5.130454787065057e-05,3.784890291032258e-05,3.727298180983939e-06,4.8487058406632787e-05,2.965819169214708e-05,0.00010718420193928364,4.309732659286185e-05,2.552387525723115e-05,3.235613741158418e-05,6.438783109632372e-05,3.168931309713243e-05,6.10905619697624e-05,2.6528869462238097e-06,7.202215800617269e-05,2.0611722128295637e-05,1.0671561640610206e-05,3.407837806074982e-05,3.8951543194515145e-05,9.322365567239115e-05,9.626113197014985e-05,2.8983921650459436e-05,-1.911516702472366e-05,1.9067348274365147e-05,2.221686277930117e-05,5.6806012842572794e-05,1.950585780150608e-05,6.980649644434367e-06,3.487236826493414e-05,0.00012218043845460753,5.800986454013008e-05,6.902950245913216e-05,3.0270775303430495e-05,1.7729873916198152e-06,3.774390363292056e-05,4.297401347791672e-05,7.083528664774773e-05,4.6612023315300706e-05,2.694163865216701e-05,5.224107419452845e-05,6.952253578269699e-05,3.7887665366382045e-05,2.678360549845483e-05,-9.865075351999935e-06,2.6200425584389764e-05,4.023310100571949e-05,-1.0941606540486958e-05,1.520863047627331e-05,1.2097259741760125e-05,7.83298384271699e-05,4.7200077099918635e-05,-6.119695858550239e-06,2.172222668306274e-05,-3.213056456825439e-05,4.818240132113902e-05,1.5893271981256132e-05,3.8494293754777455e-05,5.9190117602779336e-05,4.781064845655309e-05,5.36710416558371e-05,7.061166093449259e-05,4.6697595358890284e-05,-1.848780195283973e-05,3.8527886740187e-05,3.681099028488546e-05,3.3079101861364165e-05,3.918697351700222e-05,7.852273570371528e-05,3.617587711172523e-05,2.3348745726137587e-05,3.629776860287361e-05,3.0385907853359015e-05,-1.9530048560612977e-05,3.459925434873214e-05,6.65244849989637e-05,3.19537270510457e-05,4.6104850875295567e-05,-6.312835450886083e-06,3.485766840903993e-05,4.768562047470938e-05,4.1146050643038634e-05,2.2780694764579474e-05,1.8282786565931253e-05,2.9713548038196982e-05,4.8185350780040345e-06,4.141531279541239e-05,3.092701276116106e-05,-1.0484204999326698e-05,4.703272622294637e-05,-1.6297593673411297e-05,3.908532688257645e-05,5.97636339668029e-05,3.188076553952343e-05,2.949483345988114e-05,4.804705958742707e-05,4.525074106706609e-05,6.16202494830938e-05,1.825314590142338e-05,4.012436629787442e-05,4.805788821214661e-05,5.192097287453366e-06,5.0916495526093016e-05,4.691109920642196e-05,-2.7695494287850526e-06,7.53384756129378e-05,1.5441339305254663e-05,-2.843131075774065e-05,6.055199581999532e-05,4.63077456666064e-05,-1.1342344098289937e-05,4.657847719055949e-05,9.83483108751031e-05,4.058292982489082e-05,6.588914997380981e-05,-6.78514601804961e-05,4.7137318300681995e-05,3.958777411371792e-05,-2.591897175638266e-05,1.662840849371127e-05,5.643385966644607e-05,6.161647992995589e-05,2.8621395489029207e-05,1.8769738335952235e-05,1.937731761194879e-05,5.050779743324351e-05,4.236642522143297e-05,4.3160275712240216e-05,1.8902113449021722e-05,2.6658036097748e-05,4.935642709305158e-05,4.962996027185794e-05,1.8813471980823268e-05,6.251384956710437e-05,4.760057687738667e-05,6.627126855866871e-05,6.668795062055713e-05,0.00010066528304659224,5.249944347182317e-06,2.7338457368912432e-05,2.0939985919453866e-05,4.673855606029721e-05,1.5034439596339973e-05,1.778901180570443e-05,2.9247425690037487e-05,4.889100261631241e-05,3.6956485220156524e-05,3.684993593943536e-05,2.1358961286030253e-05,6.5625144615892e-05,2.8280313974291967e-05,4.378926909977681e-05,1.6724437075110714e-05,4.1661189209219107e-05,3.0646372870447325e-05,6.95707570944144e-05,4.4685811528445616e-05,7.735583968350766e-05,2.6101611617598286e-05,6.49484455408016e-05,7.958473463258038e-06,3.8370724358102146e-05,2.5559180004502793e-05,3.459278848988665e-05,6.952248610998308e-05,4.583272932379159e-05,2.230533101590382e-05,2.8838079053961718e-05,2.648471591224908e-05,1.2283613428327307e-05,3.305327245640522e-05,0.00010244689488081047,5.4142451154270935e-05,-1.2870498748473906e-05,3.344155876724575e-05,5.25575198828349e-05,6.414354201974503e-05,1.2065109726903911e-05,1.7153523152808342e-05,2.9117045050291696e-05,4.4022191839513404e-05,7.002257602203377e-05,-7.459384707614658e-05,2.8726351714216466e-05,-1.2246621408953006e-05,-4.941503707668862e-05,7.305876874745428e-05,1.1360697334389747e-05,-4.742846345876622e-05,-7.471815922157137e-06,2.9301359959437758e-05,5.318934862509121e-05,8.143043859726801e-05,2.1599992482673815e-05,5.991777995862176e-05,8.371466719503053e-06,2.5902934566656905e-05,1.4103958977531111e-05,3.8559606790803104e-05,6.0200744500580834e-05,2.254310346366487e-05,1.1985690200057942e-05
ADP,3.3746539980644554e-05,8.14906047851433e-06,3.842057255101193e-05,1.0993186980799267e-05,3.685529296993881e-05,5.257942880827091e-05,1.2826342775871264e-05,4.133868348349078e-05,4.329061858969014e-05,5.201383112714617e-05,1.7571742943103385e-05,8.853598285020009e-05,2.779014445985475e-05,1.9411697778491408e-05,3.8847595046210455e-05,3.599745006972973e-05,4.787102971836656e-05,4.5045777727622496e-05,4.8173175631236355e-05,2.1795693019133684e-05,6.970439568919336e-06,3.795034993606872e-05,4.449849986792047e-05,1.60740632382442e-05,1.7581137481427406e-05,4.4363595676859735e-05,2.2163279277761454e-05,4.093499765129888e-05,2.0964480175799134e-05,4.62388210646134e-05,2.8137217762008023e-05,2.635454735468476e-05,4.5705478361187376e-05,1.2494691828802374e-05,3.128429776617255e-05,3.56860529712418e-05,2.717269765154367e-05,4.7965868947337166e-05,2.905141109055225e-05,3.366544177649178e-05,5.5473347361403126e-05,1.9209386641191162e-05,3.105989286048372e-05,5.6842731188278025e-05,4.552927805793594e-05,2.6466282477227058e-05,3.833001055967978e-05,4.258263775777532e-05,4.195564857053919e-05,4.1236095776356846e-05,2.023925822839462e-05,2.492681858195158e-05,3.6938236463616175e-05,-1.8278316838957648e-05,6.48990377960487e-05,6.231407324767998e-05,2.9322018180979286e-05,1.652359746960342e-05,1.6417862645676336e-05,1.1636681662620129e-05,2.6768641109590046e-05,1.6894270010880402e-05,3.604247656543432e-05,3.1357889677206775e-05,3.2169068111297107e-06,6.052764006867002e-05,1.855036393523066e-05,3.360985739348757e-05,2.9745759723048517e-05,2.4862987368094522e-05,4.3657727741047524e-05,4.1980609449815404e-05,2.9925816951687162e-05,4.701313968366533e-05,4.954148919711131e-05,2.4842895206526882e-05,-7.326479050140213e-07,3.6372856264347367e-05,2.0480279723325927e-05,2.0552425559412056e-05,3.8542692561670425e-05,5.7286092628979596e-06,3.2124191529942344e-05,2.7489450312262018e-05,-1.718468579070322e-05,7.029985524526188e-05,-9.49616080071049e-06,2.0757047282742142e-05,2.38087106867323e-05,1.3182779669141665e-05,-2.485586020734281e-06,1.6692817533725303e-05,3.10339117561219e-05,2.4632650286809932e-05,2.1783834233016042e-05,2.230805467245428e-05,2.1016092514695093e-05,2.0753575203561854e-05,2.767626518609429e-05,4.210727531318509e-05,1.8524827698840213e-05,1.3174735017683846e-05,1.8035527707547825e-05,6.0206068376846387e-05,2.773084226925564e-05,2.7158956387765105e-05,1.8697414101256927e-05,2.7620447081191092e-05,2.5787834179417615e-05,2.6795173320535797e-05,4.3290806833552674e-05,1.5533203327313684e-05,8.575006607788498e-06,2.0740328296636165e-05,3.99877333884373e-05,3.9632211770983415e-05,5.309070808842552e-05,3.500227413327823e-05,3.1535775273938934e-05,4.25084658782963e-05,4.0258666516552406e-05,2.9415348067283046e-05,3.846348990399378e-05,1.559685915450919e-05,7.732732339472478e-06,5.130786273242557e-05,5.6877588260584556e-05,3.541582873205617e-05,6.0149430635606686e-05,2.6969954694078934e-05,2.532766933720977e-05,2.4438253592981377e-05,5.049952495786918e-05,3.9728245660075835e-05,1.602706895165618e-05,2.1618250373614818e-05,2.9690645668191834e-05,3.3807182681814795e-05,3.737114019248649e-05,3.056657076220819e-05,9.85573238772835e-06,6.095565115644316e-05,4.8002739589433084e-05,5.133329003151262e-05,2.658985840299771e-05,4.182704721743504e-05,4.550998304968465e-05,3.174520600463537e-05,4.804207920664906e-05,2.5113325411881345e-05,6.0844666676478293e-05,2.579916392637469e-05,5.494321320821884e-05,1.9901410950012245e-05,1.4522701725836048e-05,3.511447518095339e-05,2.050925786538004e-05,2.4626810411655336e-05,2.04298116385919e-05,4.8134622374767144e-05,2.0689042115138747e-05,3.350678390789493e-05,4.1570334564927076e-05,1.5831915871310864e-05,3.100613673414697e-05,6.186489258940911e-05,2.030047055627934e-05,2.8759907019424466e-05,1.5327046951205233e-05,2.7069988451999214e-05,2.1974259759695267e-05,3.3602920933577938e-06,5.168986233086616e-05,3.979628261042109e-05,2.6023215889882704e-05,2.683886098776471e-05,2.9182606491766418e-05,3.897737985409415e-05,1.9275143387324388e-05,5.057104143243589e-05,8.959814994644854e-06,4.029883348302117e-05,3.495309515456664e-05,3.691009325303341e-05,4.044095547204923e-05,4.19255937298066e-05,2.3330853034085438e-05,2.022943536367204e-05,1.851216151087147e-05,1.4706545908807555e-05,5.739567067960172e-05,1.3669288237919031e-05,1.6062332074294904e-05,5.6563968087814747e-05,-1.3316900468137976e-05,9.372328044427866e-06,2.3371489709403535e-05,1.2524488882504607e-05,1.5038810395014226e-05,3.652475945534609e-05,3.5557800210886715e-05,6.428175821546122e-05,1.62182497496417e-05,3.603070019400365e-05,5.461355272058455e-05,-8.274268510745023e-06,3.238206023674598e-05,3.599574002512892e-05,3.338256280452841e-05,3.972915224579511e-05,1.4204041654484701e-05,4.921206977756586e-05,2.573330240256758e-05,-3.2945075953498344e-05,2.1103225842301164e-05,3.052353138864847e-05,3.0406145785065226e-05,4.256555410769512e-05,1.883836980850016e-05,3.23440424637889e-05,5.4293734627140576e-05,3.8971908115787046e-05,1.5065226366469601e-05,5.479949423411325e-05,2.661917266793958e-05,5.043383268911035e-05,2.897251217576505e-05,5.084691160069828e-05,2.1342224762771952e-05,2.6881342758151172e-05,2.6212423689492642e-05,5.817224885816102e-05,4.111803641657501e-05,2.9524687275562078e-05,3.809450715367127e-05,2.348774496082473e-05,2.3206929662068757e-05,2.587885496302935e-05,4.155327220335035e-05,4.0537053178226764e-05,2.6726968379404237e-05,2.238563174429298e-05,3.13183121928196e-05,3.712667089628542e-05,1.4916668091199912e-05,4.3893326916427246e-05,2.2144976669253085e-05,1.3128055807339514e-05,6.080385083268818e-05,6.824293463336148e-05,3.275516111029512e-05,3.6630024591763304e-05,1.9220691147324955e-05,2.007666549105858e-05,5.5039915117765114e-05,4.242613014352984e-06,2.908250768061529e-05,3.14678828915434e-05,3.634921173108406e-05,1.916050577022688e-05,5.0718149271755436e-05,6.23778006496118e-05,1.7242802919382682e-05,2.202780329416042e-05,1.746524396289442e-05,4.1006700732384105e-05,5.3692243543277505e-05,2.4465885636188633e-05,4.0418787476408136e-05,4.54213808842105e-05,1.8822709935058976e-05,5.54661265057713e-05,-0.00017451887635849673,4.6171089031288244e-05,-5.452527663087157e-05,-0.000121496024835953,2.4044869417749303e-05,1.9723513327364787e-05,-0.00011656389731262183,-4.4908853276596194e-05,1.699480350131185e-05,2.7933509719257777e-05,4.6551396924589424e-05,3.0323928649028546e-05,4.824826666409215e-05,3.052088699873441e-05,3.352693786653137e-05,1.543899108772689e-05,3.1251814474198706e-05,1.8283473923620882e-05,7.231906522688429e-05,1.054858615811928e-05
AEG,0.00010454967484735427,3.211139434731905e-05,-3.612112589004212e-06,7.190757368376128e-05,5.137820756895311e-06,4.0669112331479526e-05,1.7409139154458547e-05,3.6423978408736645e-05,3.6525260902176796e-05,8.544634573565646e-05,1.915146491941948e-05,2.779014445985475e-05,0.00024173572889085607,6.490031035751504e-06,4.343299942872511e-05,7.274563608849677e-05,2.3872970780389657e-05,4.5905055994664406e-05,0.00011806095701436822,8.988971181761957e-05,9.428627712847777e-05,3.735169326439581e-05,7.834931695960108e-05,9.254054869485616e-08,5.937407644362682e-05,2.850427978186416e-05,1.6134485763351403e-05,0.00010740983819598551,5.268798812487916e-05,8.103087033698945e-05,1.9446264695671834e-05,7.510218646071334e-05,8.080071169193382e-05,2.089137805497996e-05,1.8571119869637303e-05,7.119599165439116e-05,5.8775397426970394e-05,5.2785536237560714e-05,5.4126866360870376e-05,1.891198178338862e-05,9.350425067006731e-05,5.212973232233794e-05,1.1223749374011568e-05,9.186157747704304e-05,0.00011236721973774474,6.483515442858109e-06,7.21327729332692e-05,9.473093207180337e-05,3.7571332572931207e-05,6.234513185274736e-05,3.4708019724260704e-05,-5.195480600334219e-06,0.00010132362349679572,6.99273469492051e-05,0.00012405080272689424,5.820761318525685e-05,2.8153101406508485e-05,3.784516376410964e-06,4.7845929669767195e-05,9.801335196792086e-06,4.569234993991453e-05,1.707768131217675e-05,9.790452102072872e-05,5.327129468334786e-05,3.419335693356035e-05,0.00011299186862882921,2.1165209591391072e-05,6.966763963347718e-06,3.0016747253166647e-05,7.392595760645868e-05,0.00011094840769622506,6.547228079611592e-05,3.0251878435986524e-05,4.288964124184169e-05,5.3395595598256024e-05,5.9955837140189395e-05,6.001163584648611e-05,6.943056761919482e-05,3.580655750559866e-05,2.1997320582600694e-05,9.67091746044305e-05,0.00012328722773596046,5.1356554035991714e-05,6.667595440806646e-05,3.226799624093977e-05,0.00011653066891917063,3.586627046801184e-05,5.377335077642236e-05,3.320924888545105e-05,3.964539789435881e-05,5.4376021225359756e-05,6.128406910713637e-05,9.263274276554311e-06,6.928314240945025e-06,1.7146462226154116e-05,7.776944768413342e-06,3.723312884123936e-05,3.7805173376213154e-05,2.866208704513231e-05,6.278102116515143e-05,3.759006406618144e-05,1.6787473078140674e-05,2.857961276321988e-05,0.0001277867719994569,1.6698999564466955e-05,1.5472035253931922e-05,3.410901404036897e-05,7.404610587402175e-05,2.178917069599442e-05,1.0498673217152569e-05,9.949457116136563e-05,0.00010232820222784386,5.5336967860176797e-05,2.9647636259785353e-05,4.3365052647468866e-05,4.422811202787041e-05,9.332678201167519e-05,4.407547787791137e-05,6.344803091698312e-05,4.639684477292036e-05,8.900476149401435e-06,-4.3888487020735784e-06,0.00010948715917729822,5.99532229752995e-05,4.4937820491763155e-05,6.763799996579463e-05,0.000126510066709,5.242114052207505e-05,0.00011106371699520373,3.596026740460299e-05,4.769749502132988e-05,4.4532113842182114e-05,6.344164264126998e-05,2.1511109280401027e-05,8.114670975975092e-05,4.794236574102452e-05,3.57087112419899e-05,5.9294009373694846e-05,2.8216469372033145e-05,3.3390948023692925e-05,3.395173920310302e-05,0.00010415173494631426,5.474845807564305e-05,7.535179532082229e-05,2.1470805843484094e-05,5.033690478471663e-05,6.325534019767269e-05,1.326774548968126e-05,9.407898166478313e-05,5.776558551570987e-06,0.00012960377789023435,1.4681966981382147e-05,9.898071598533026e-05,9.588850981927309e-05,-1.9439105989988495e-06,3.911362949384491e-05,-4.880855627556689e-07,2.3434653569525536e-05,1.2852569478912501e-05,5.5279359039688256e-05,5.1452984948857807e-05,1.1169623456129133e-05,3.3423980423912264e-05,9.951219237803658e-08,2.1263797068697173e-06,0.00013423112615899366,1.4242713198202105e-05,4.790882776132747e-05,8.523752962225307e-05,6.838735865617683e-05,5.0331239949813114e-05,7.878530843087504e-05,3.3271251217428696e-05,6.929146794749592e-05,2.5177700078321282e-05,-5.517623829074861e-06,1.2763044330862379e-05,2.6122683410903303e-05,2.824954694541964e-05,7.821862106588884e-05,3.0306313485301727e-05,5.808049011782619e-05,0.00010251775963025504,7.044100923572587e-05,2.9347063563217812e-05,6.521265383980444e-05,1.0393281252070927e-05,2.644720028018282e-05,3.299065510225457e-05,3.6259978244853556e-06,0.00011129512812676023,3.299689487457267e-05,0.00013074504675574197,9.793215110975319e-05,0.00012650026252146573,1.782645486779163e-05,4.5271747328864923e-05,5.104654821582019e-05,4.490202605613737e-05,1.0061996659625502e-05,6.148210367547746e-05,6.798743060930369e-05,5.7533526575174665e-05,7.457103353103038e-05,7.511449434290412e-05,8.571422151651647e-05,9.520945488675052e-05,3.7939688073467436e-05,7.368571703569088e-05,2.356598948493036e-05,2.1080764656156005e-05,6.186257524492241e-05,3.796405457951316e-05,7.566333535430105e-05,4.130957097054013e-05,-9.312048785364937e-06,2.7005839112151684e-05,8.121487734367545e-05,-1.1332689654754473e-05,3.5457640158103165e-05,8.236935541631075e-05,4.997426967364685e-05,2.002678530601824e-05,8.279763210349203e-05,5.9061079632223656e-05,9.464738613074309e-05,4.4054730507975354e-05,7.709742632450605e-05,0.00010847257803965611,4.842009603842684e-05,2.331397081036423e-05,0.00010051675279632739,8.936564503454118e-05,1.0153874556391044e-05,1.9514951968662492e-05,5.4090972555435605e-05,4.5579447176347e-05,7.720014422139532e-05,4.210424866700593e-05,5.8808963801224976e-05,5.649279167058186e-05,7.473743295051906e-06,3.599443604681603e-05,2.7407279922593833e-05,8.687372283598153e-05,6.539397677817519e-05,3.512093790569652e-05,4.083181431483828e-05,0.0001390900149944093,0.00013417196404455004,1.7974319352840502e-05,3.306969436127774e-05,1.747859015953383e-05,5.7055381806196375e-05,0.00011319604473044755,8.853339468064015e-05,3.1506420578963704e-05,3.046272724387204e-05,2.7137975344327465e-06,3.576156020955174e-05,5.9790161505343253e-05,0.00012616135544882807,1.5562020919138655e-05,4.5101688306504574e-05,1.3631420602671903e-05,7.209816815645882e-05,0.0001383178826260416,5.820243177415184e-05,2.141596790381359e-05,4.7434428140699414e-05,5.023253756570707e-05,8.612254692118363e-05,-0.0004074580536705274,3.2034850089441946e-05,-0.00011497812785528777,-0.00028220742944199426,2.470709424754811e-05,-6.773040884620851e-07,-0.0002751339533504169,-0.00011114415581990272,8.64603897400277e-07,7.724662386986579e-05,9.426073938308526e-05,1.06710572914148e-05,9.280208989990929e-05,6.878269128416638e-06,3.5155315636749496e-05,2.497552422010238e-05,1.852207521584199e-05,2.063292382761963e-05,0.00011101648584513995,3.596648674956308e-05
AEP,1.7522356144478366e-05,1.937777914465716e-06,5.320896972633745e-05,-1.8278267689457504e-05,4.4269778667475624e-05,2.4326800624637815e-05,2.1860451659234533e-06,9.89335645896516e-06,-1.6192550200864388e-05,-1.4196329909453481e-05,5.1331635625070204e-05,1.9411697778491408e-05,6.490031035751504e-06,0.00013892253280079565,3.178456795168793e-05,2.244885374468908e-05,3.778573659670942e-05,4.013561435141918e-05,2.0963050923651935e-05,-8.173445897340632e-05,-7.185313981657283e-05,4.0052959325713596e-05,-5.137584733608142e-06,0.00010738414538384857,-3.1553001398275987e-05,3.141577184274706e-05,5.233410756286753e-05,-2.3271326843977957e-05,-0.00010880482643004907,4.103653555921843e-06,1.8473689708356817e-05,3.6185050380904466e-06,2.6004827691732363e-05,3.5160280296989716e-05,3.409227872047132e-05,2.9528584661998176e-05,-1.6515543982873494e-05,5.792885134595182e-06,1.6649680930331027e-05,4.113379400248108e-05,2.145573434039892e-05,3.363468921626641e-05,1.1729536558870589e-05,1.835347993113479e-05,1.0844903869766412e-05,1.0162180107766405e-05,2.889670925353537e-05,-1.1796141027008925e-05,2.8551171192316614e-05,5.414810050810498e-05,3.086214113399803e-05,9.654403268275197e-05,-1.8349505062327118e-06,-1.3740800625715123e-05,7.290865425345666e-06,3.11352752879624e-05,3.423525886823584e-05,5.119680271177124e-05,2.5542253106253442e-05,2.9284795397346724e-05,1.883670540947575e-05,3.6437177436556317e-05,2.0784625986751783e-05,1.0168364179676314e-05,4.628392954583507e-06,-6.022204764767396e-06,1.3042621090063709e-05,1.2428465546155158e-05,3.884129903523863e-06,1.8617778045964995e-05,-1.9994101511984706e-05,-1.923041359359692e-05,4.93523444816306e-06,1.8666026711078394e-05,2.1228346319184932e-05,3.4575018414403845e-05,-2.779912566163098e-06,4.953902328513247e-06,1.957945944141702e-05,0.00011258501325333688,2.6643048308418538e-06,2.1639429269921195e-05,3.2506072680739794e-05,3.075230366547422e-05,-9.856197706010106e-05,-2.229599003748752e-05,2.7676627791374327e-05,6.113735890543061e-05,3.075884081913197e-05,1.630782475911935e-05,3.2938992006099805e-05,2.61876910599621e-05,9.386811168824783e-05,9.033283362801504e-05,3.002880865571092e-05,8.898531739045391e-05,7.275829454148778e-05,2.862609692004572e-05,3.088918327013946e-05,-4.726221879992935e-06,3.927403896510517e-05,1.641293983643296e-05,1.6226493755871716e-05,-8.074536313774022e-06,4.383412970804747e-05,0.00010717649782855229,8.228588020722381e-06,-5.2184172403583055e-05,8.689511470062722e-05,9.125529965683406e-05,4.5100906422936944e-05,5.680161865260717e-06,2.1847653339653052e-05,2.4291685201044316e-05,1.711552433688907e-05,3.183965691572711e-05,2.6755069785974478e-05,1.8488396185918802e-05,-1.1135310136259585e-05,3.196315036498357e-05,3.040924473875017e-05,5.054213188038409e-05,3.0493407209136058e-05,5.004282158134271e-05,-3.703415965180263e-05,9.717242130580492e-06,4.0646145050826283e-07,2.0771578104662855e-06,1.256336932968994e-05,5.411600981627823e-05,3.9988761978682744e-05,1.6901027473958353e-05,3.5639399014996935e-05,1.9352301529537403e-05,-5.68786446181021e-05,4.7806952360321516e-06,1.3721883045508646e-05,-3.1318113064208604e-05,1.3970504945856888e-05,3.52791962221054e-05,9.207456514049694e-06,-3.7098177827633948e-06,-3.1579053011306357e-06,3.023903896775259e-05,-8.606946818254415e-06,2.5821933884318526e-05,-4.271089089463925e-06,5.338717668825798e-05,8.77287762007555e-06,3.267974889725401e-05,1.1307407390378278e-05,4.490820946576194e-05,-6.107471900997454e-06,-8.541086769548307e-05,5.4290369044293785e-05,2.6874147658981586e-05,4.973385887844729e-05,2.9468768321001473e-05,6.224009248041219e-05,2.9900000163620092e-05,6.353751148600101e-05,3.6500386105930566e-05,1.9470077030346906e-05,-2.951089622965075e-07,4.388179208214633e-05,1.9705510704852193e-05,1.639801626569985e-05,4.698264293929969e-05,-8.650436462813661e-05,1.8630650320018088e-05,2.565439402910681e-05,2.3856742875063385e-05,2.1146061110772306e-05,-1.3893525187997284e-05,4.003569474495823e-05,1.4692109547382666e-05,4.784028462256971e-05,4.456433689687604e-05,2.9293227009217483e-06,2.0454810208879172e-05,-3.0728630944531154e-05,1.5837084262941704e-05,3.0371697405163703e-05,1.6016562205019816e-05,3.18725302175718e-05,2.0350539739117888e-05,5.3897136829906146e-05,5.555049130743001e-06,1.9052509584981213e-05,3.968228425119491e-05,8.941650867614932e-06,-2.2229799197585928e-05,2.6049867899114166e-05,1.1714153212605502e-05,-9.564583733555075e-05,0.00010882416514094755,7.576103396866425e-05,-2.8798841025443008e-05,3.913224540626295e-05,4.043070330803877e-05,-2.7403680952622562e-05,2.3707014336546316e-05,2.856842965364801e-05,3.286879630106795e-05,-1.0448998715555125e-05,-0.00012922442242007713,-2.013292894317907e-05,3.597372480999689e-05,-5.023730048838837e-05,7.41894051765928e-06,1.305895884770344e-05,-4.828564518479394e-06,6.342257224186559e-05,-3.565525971874436e-05,4.952269874707599e-05,4.945670785280745e-05,4.6171518299735076e-05,2.7586060038002778e-05,4.774854395065378e-05,1.973945428028362e-05,-1.1109492027461385e-05,5.893314404928275e-05,6.750392114089436e-05,2.3463696664113376e-05,3.1207348051565583e-05,1.7854771599763977e-05,1.55008926555952e-05,1.8643806121756072e-05,-5.700682550107639e-05,3.802596654145374e-05,1.1941489665175316e-05,2.2414660917253525e-05,-4.917096705141812e-06,2.610410418801748e-05,2.600200706899943e-05,2.6270943173508178e-05,3.1925809376410205e-06,1.7331936567276817e-05,3.7603501341766155e-05,-1.9292593886859208e-07,1.5105846426394642e-05,9.290757849089345e-05,2.8685692192477355e-05,5.6237767864656866e-05,-9.219092649706066e-06,3.200954209297193e-05,3.9718465623024934e-05,1.6676834842765892e-05,1.4561171722365121e-05,-8.657509797342977e-06,2.6594681244830136e-05,4.349546158521687e-05,6.221729929015923e-05,1.9768891841208303e-05,2.3598164118272056e-05,2.788745722477785e-05,2.074831113055359e-05,2.737165625813962e-05,2.0222070242003536e-05,2.980001631057793e-05,2.5594534526226384e-05,-4.89828176847729e-05,3.6117729469572746e-05,-6.2439253829707044e-06,5.0066903926377215e-05,2.503399247875459e-07,1.8892232445667655e-05,-1.5560205146498256e-05,1.8660286638256124e-05,3.0065730803145207e-05,4.550746496075456e-05,3.11019280249571e-05,-3.39531160544758e-05,1.7082093152654647e-05,-2.3158755930071168e-05,-3.01370167402248e-05,7.90311462107659e-06,2.9074052445507538e-05,-2.586278164498772e-05,-7.597446911507318e-06,5.730187229643712e-05,7.29481802260664e-05,5.0404798394823765e-05,5.5999243170217046e-05,1.1372278692709973e-05,3.023721277443774e-05,2.0293282052551677e-05,1.2628180773654441e-05,7.415182604073306e-05,2.795196220768891e-05,-1.614471194275374e-05,4.7057242698334344e-05
AFL,3.368716066046351e-05,-7.840833220136478e-06,2.009731770263448e-05,-1.278658842464824e-05,3.718196724930224e-05,9.64640437015194e-05,1.722284440806407e-05,2.816869733195747e-05,1.2488910570087091e-05,2.6683780869641946e-05,2.8586413430035114e-05,3.8847595046210455e-05,4.343299942872511e-05,3.178456795168793e-05,0.00017178497333935952,6.966503357097282e-05,5.834785074538261e-05,9.13220483137736e-05,5.962257753310186e-05,-2.1443386841283725e-05,-9.727268060223633e-06,1.4385429717659382e-05,6.402925989671632e-05,3.566820503360388e-05,1.9918712716353946e-06,4.0872762617405956e-05,3.9976391753056025e-05,6.425762091052543e-05,-4.790209181171089e-05,6.456984248813969e-05,3.191511859204539e-05,1.9235156795680736e-05,7.106057439778192e-05,2.3578972723681717e-05,2.8455135893868947e-05,5.3348135177608444e-05,1.3385586829961428e-05,4.744124236945653e-05,3.595168927216228e-05,4.347158992699507e-05,6.246280608016236e-05,2.534606534953847e-05,1.1589543635338635e-05,5.773948722643412e-05,5.424712909543543e-05,4.890555084480564e-05,3.334801183011133e-05,3.2968062969716986e-05,6.342200550136472e-05,6.0721867842870094e-05,1.5613949428739296e-05,2.8802040343441722e-05,2.2498159864027547e-05,-3.34081684724516e-05,9.981514788239774e-05,3.5247040396390304e-05,2.4305451439439825e-05,2.7985992980954373e-05,2.910439417482598e-05,2.3943938746166245e-05,5.2515218245017234e-05,2.1042150443050324e-05,2.560470304064651e-05,2.632127328443458e-05,2.6579557315251688e-05,5.999328997203604e-05,3.0107301519789756e-05,3.0917159944693024e-05,6.651835215018584e-06,1.3635351023200953e-05,6.804751099844584e-05,3.750034194511817e-05,2.1851843715486268e-05,3.6755782728700976e-05,3.411569983034589e-05,-2.505809898354232e-05,3.1820396307142055e-05,5.791506021837674e-05,2.7405168874354892e-05,4.448477335723439e-05,2.9501980099667086e-05,9.148780884139087e-06,3.533822973694476e-05,3.3943180492973645e-05,-1.1966897379039892e-05,6.228398651472999e-05,-1.6131793843839814e-05,4.2436980990709914e-05,1.62784066141547e-05,2.0770719970932613e-05,-2.7309582849857542e-05,2.7758493686052848e-05,4.867858382460784e-05,3.992765262951338e-05,4.12896552605204e-05,4.1871342181317955e-05,5.061730902189971e-05,2.2317592205911286e-05,3.006401382652706e-05,3.833323479798868e-05,3.072988158528894e-05,3.2283175567176475e-05,3.0253061665903e-05,9.036564072212876e-05,2.778101057410606e-05,4.24377496016276e-05,3.4173542401147894e-05,-3.012329830753475e-06,1.8506753469411882e-05,4.849877791459901e-05,7.534670500549624e-05,1.8648714963101918e-05,4.041111031594469e-05,4.6525671087167525e-05,4.21494833867036e-05,3.168083191213806e-05,7.177670736295671e-05,4.67875438391153e-05,4.038580184787957e-05,2.1372706353784214e-05,2.1255547984344752e-05,2.927710618957389e-05,6.357356192034216e-05,2.1157293549754716e-05,8.495010792911333e-06,4.4420321715035944e-05,6.778823294476414e-05,5.268249198938082e-05,7.432324512230852e-05,4.821819524929833e-05,2.776115461088934e-05,2.1044769892437136e-05,8.690660515639307e-05,5.240993462044459e-05,3.211601679987802e-05,2.7938488433959523e-05,4.378100282116622e-05,3.228570788808726e-05,2.87913523536155e-05,3.6565662054829016e-05,3.421327280473755e-05,5.469820217991644e-05,1.3668718290535168e-05,4.825893072060181e-05,1.5085378098934386e-05,4.7375897999152014e-05,3.023464937537857e-05,4.100037211701971e-05,6.39906112802964e-05,1.2842547825065837e-05,8.45901234442061e-05,1.920909228139262e-05,6.50163119878634e-05,-1.3045869870541402e-05,2.741835154854069e-05,4.533493483039458e-05,1.716614803140866e-05,2.719867909621553e-05,4.18980690150192e-05,7.844864870463427e-05,4.2521857047326644e-05,4.909434203833751e-05,3.3529454012280594e-05,1.2192807660749164e-05,3.85368144376171e-05,0.0001179024450132449,3.479248466459204e-05,2.532171798326351e-05,-2.9029188586260685e-05,3.8696278785377796e-05,3.298394003043215e-05,2.36593214456303e-05,4.1668188668074085e-05,2.016775637088314e-05,2.0663566580815042e-05,2.9088133984258984e-05,2.023391709877721e-05,3.77250660369009e-05,-1.3501362531634732e-05,0.0001182100577982363,2.0777528758482506e-05,6.0378220410439314e-05,5.033301716535277e-05,6.173069047599235e-05,5.174557634110839e-05,4.1643541756927426e-05,1.1798079077805854e-05,4.0119431244318216e-05,2.5657548071073353e-05,8.379189473255339e-06,7.38039170140748e-05,5.722818808025099e-06,-6.654864917188201e-06,8.869974605036782e-05,-2.5329563091408476e-05,4.33151626270593e-05,3.02838690762441e-05,-5.367949787557896e-06,3.0523020093820405e-05,3.674382322904206e-05,1.5999503203155777e-05,1.5421639687823267e-05,1.8669070553359603e-05,5.413445006055005e-05,5.310006813364015e-05,-6.0636945112147533e-05,1.2370892703158006e-06,5.463967925322158e-05,6.319027832490959e-06,4.1745455146287576e-05,3.271422923018063e-05,4.5242057534672534e-05,4.747010304196048e-05,-2.0849398253458995e-05,3.1963327432085696e-05,1.928408800092918e-05,2.8783980441718205e-05,8.7771634100766e-05,2.4145151469198258e-05,6.545223746250992e-05,1.957722869494689e-05,3.6369077407925485e-05,7.419185840461507e-06,7.894557544677175e-05,2.9067355449072016e-05,0.00010509769532846573,4.22626300573686e-05,5.531781313481501e-05,1.774211987685871e-05,3.64721749684515e-05,4.2335077828216176e-05,7.85663272624347e-05,5.936327627062362e-05,2.9380053652351184e-05,3.6663472716775904e-05,3.6389685644697614e-05,9.681664972437169e-06,4.77470174376207e-05,3.643513874266736e-05,4.220067790954397e-05,3.79104847703401e-05,4.259185423892463e-05,3.565030913961379e-05,3.65256862216531e-05,4.785695351415665e-06,6.150064014409683e-05,3.6011597208545134e-05,4.025979009520519e-05,6.761694423621681e-05,8.340266306852116e-05,2.7027540290632716e-05,2.7831021714872096e-05,2.7780126486415788e-05,2.212816072374296e-05,7.782671820517934e-05,2.771065065791284e-05,2.4960594271029018e-05,2.1557705734592568e-05,3.4245820339191116e-05,2.6625168210638937e-05,7.873442418712093e-05,3.895341990037236e-05,3.0330806508853994e-06,7.635238819160732e-06,1.847165828337298e-05,2.367767836131502e-05,4.847562926923266e-05,5.77263769749783e-06,3.5023130081402755e-05,4.1910774620395134e-05,3.193442364130444e-05,7.497212972980344e-05,-0.00019127048303296956,3.956852902328395e-05,-6.179368939826293e-05,-0.00013815340790157644,4.3733865613005654e-05,2.527675402313536e-05,-0.00012944051942053022,-4.546189825977946e-05,2.522208396810803e-05,2.0186166401000942e-05,1.2028069838070718e-05,4.1943790483197076e-05,7.809298000691306e-05,3.117751349412002e-05,4.6525649693556304e-05,1.782115493528979e-05,2.4609216248241513e-05,3.939934204240945e-05,5.963264967489017e-05,2.702425983334564e-05
AIG,6.000236200369471e-05,1.5422216045979727e-05,2.751073292283715e-05,4.886645032373277e-05,1.272359796144696e-05,8.817860806679217e-05,2.1636158527677372e-05,2.506462030299354e-05,4.64500444930318e-05,6.330667704095178e-05,5.8717478440615875e-05,3.599745006972973e-05,7.274563608849677e-05,2.244885374468908e-05,6.966503357097282e-05,0.0001706219534529091,4.902782305251267e-05,6.888499371063427e-05,9.508060460740954e-05,8.175403821368995e-05,7.807723578666304e-05,3.777121022684936e-05,7.551589041376754e-05,1.522127883785257e-05,5.389132170023e-05,4.1442707776480844e-05,4.759113170538913e-06,0.00010048409794704348,5.180825641828574e-05,9.040989315284354e-05,3.9928444275018875e-05,7.471653170539562e-05,7.835599204602071e-05,1.2923463350300717e-06,1.6343747711503796e-05,6.291864872131135e-05,5.22966719267457e-05,5.718407843262456e-05,3.9720513769017834e-05,3.406580209294263e-05,7.867331752436484e-05,3.584889258152473e-05,1.3691767439294866e-05,6.934858303708453e-05,8.011701743507863e-05,3.906668144548552e-05,6.641106762231339e-05,7.726574474207621e-05,8.611769614782843e-05,5.082157555037509e-05,2.4710571915331824e-05,1.8015747540619642e-05,6.603117849360703e-05,2.9310024220579714e-05,0.00010182021703167048,6.196677676932224e-05,4.3170723958302535e-05,1.8253203516400607e-05,4.339965152568998e-05,1.2088447098517475e-05,3.3701864827651856e-05,1.4777056599178877e-05,6.432621684018996e-05,5.206792166754886e-05,4.031408363431443e-05,9.80365808293645e-05,5.052548454699277e-05,1.4248844746830613e-05,2.8562486487796786e-05,5.331829906850548e-05,0.00012740956253351937,4.494003917217028e-05,2.2929047006188144e-05,5.088288419520057e-05,3.943068062624172e-05,6.0146417725971045e-05,6.274786858915534e-05,6.0529992086996805e-05,5.43312255875721e-05,1.9981145446333726e-05,5.71005715054516e-05,7.217526795321031e-05,5.1427066980719556e-05,5.404744135775208e-05,6.677691274531837e-05,8.285986880627542e-05,1.833493439490956e-05,4.527191805577829e-05,2.45126423284671e-05,4.1320753578914165e-05,3.8980686603431855e-05,5.566878551585627e-05,2.6795364503895546e-05,2.4546748742031228e-05,2.72227529842871e-05,2.0234971932254412e-05,4.287710048691525e-05,4.599391906593087e-05,1.77738556930418e-05,7.521386674949368e-05,3.75674437061499e-05,4.0714431114687125e-05,3.5552766527329363e-05,0.00010061306019281191,1.93685576119295e-05,2.3143104346586275e-05,3.1958657822463596e-05,5.200108038595534e-05,1.5109488662914082e-05,2.5377553347325173e-05,8.903461889633574e-05,4.54156831920873e-05,5.0706912144294326e-05,0.00013073669295610868,5.480535410487384e-05,6.103199321522157e-05,8.100842765919284e-05,5.114132916459632e-05,7.211169663188992e-05,4.021621096675724e-05,3.0944750237258745e-05,1.4479359290507796e-05,8.096646877777027e-05,4.41707224832556e-05,8.496954131882636e-06,7.797176155537398e-05,8.566850182760845e-05,7.836017913245449e-05,8.739892360892989e-05,4.0913498923180743e-05,5.1020957496564135e-05,6.668776803944371e-05,0.00010208041032471644,3.6597572307615695e-05,6.033281210558602e-05,3.508503902416723e-05,4.033461313399052e-05,5.463973423039989e-05,4.176342661158212e-05,3.926446733913369e-05,6.011545741788289e-05,0.00012184698020964906,3.439464943797538e-05,4.993968103337729e-05,1.5888593849007848e-06,5.3027244407998186e-05,5.9570830629950645e-05,2.8277822818552212e-05,8.983136390627358e-05,7.428546929295567e-06,0.000104100289050847,3.0239593577181127e-05,9.568386043002635e-05,7.485439353689824e-05,1.0206988961196066e-05,3.4617752263134195e-05,6.515377749448297e-06,2.380470269738227e-05,3.285149733124983e-05,8.596237593184214e-05,4.1581852517594686e-05,3.2535510554555955e-05,3.543683742821402e-05,2.0943607352720653e-05,3.348324835543062e-05,0.00012800832442025388,3.2137089846139515e-05,4.728917576735272e-05,6.959630327113527e-05,4.6063106548558946e-05,5.196960642530896e-05,7.357060994544973e-05,5.356719074605793e-05,5.208802853239668e-05,1.996568239144106e-05,3.964093729818013e-05,2.0548887952478893e-05,3.210877840963107e-05,2.3416981265896772e-05,0.00010106266915353638,2.0781058361313954e-05,7.981584888241233e-05,8.616879985877346e-05,0.00010117669139757314,4.5937668768368426e-05,6.942043833117645e-05,1.8755020882752334e-05,5.395587250227113e-05,2.6036886265474776e-05,1.3393959128119881e-05,8.693892354558545e-05,2.3641288440908087e-05,5.3338029840743534e-05,9.39167842027637e-05,5.354318142512993e-05,2.5601785419597637e-05,3.039180171913408e-05,1.7793021838197375e-05,4.323282735694957e-05,2.3178953967697986e-05,2.608246694979055e-05,5.750075101420158e-05,4.829965016496769e-05,6.645694641489589e-05,7.36995661362629e-05,4.0280628840027455e-05,6.660367208838782e-05,5.46228140173484e-05,3.3708186457502395e-05,4.346475150156523e-05,5.21723206300841e-05,6.528255843929486e-05,3.6893334477636466e-05,-5.504850019948373e-07,2.56166359021051e-05,1.0002323811109938e-05,2.5829749125960838e-05,0.00010210601049758975,9.311521343796736e-06,5.7479116341419717e-05,6.897580618667854e-05,5.2183021581547664e-05,2.269107787829069e-05,8.292843434099792e-05,4.6765336262476614e-05,0.00011286618264259986,6.738060410469541e-05,8.94781578254052e-05,6.869904501735218e-05,3.525230232682866e-05,3.573282693479177e-05,8.633265617996688e-05,8.226761387630575e-05,2.1443332726505054e-05,3.773706164895899e-05,4.877931273280234e-05,1.667407052656451e-05,6.445130491762425e-05,5.267037112586752e-05,6.22292448571458e-05,5.062247143835461e-05,1.6975460613944873e-05,4.1010084009106504e-05,2.5847732763613193e-05,5.41591186712906e-05,7.223048246330777e-05,3.384878559137416e-05,6.220695881731871e-05,0.00011414047703934938,0.00011581507974637227,1.2231736660713922e-05,4.664471002333969e-05,1.7921429874024323e-05,3.136865889602381e-05,8.645738167821607e-05,6.573160828354667e-05,3.7086421865403623e-05,2.3665937362208914e-05,1.9143617031653307e-05,2.1771042858866337e-05,0.00011275894021209998,7.953040552795706e-05,1.8875164938996002e-05,4.404438241565721e-05,7.961318861788382e-06,6.558484268131793e-05,6.998791771111948e-05,4.2319742560478776e-05,7.441320832970344e-06,4.671665420459847e-05,3.653787035528446e-05,8.703737730208091e-05,-0.00033161786575048593,5.0932250137998564e-05,-9.980697807867023e-05,-0.00023107778014468713,5.597110584259778e-05,1.2740110270161747e-05,-0.00022339575737782472,-8.651447293998552e-05,1.1747286724278256e-05,2.5196584989367667e-05,4.5054838557671414e-05,2.090710677545409e-05,0.00010013324037374047,2.7528171032801885e-05,4.54786842795165e-05,1.2774776548516359e-05,9.754606630710793e-06,4.513347871939715e-05,8.128096808254483e-05,4.025031000892949e-05
AJG,2.8225134517899452e-05,5.068666070023497e-06,4.954604142860784e-05,-2.3603568302008982e-05,3.563749468807885e-05,8.34567785190551e-05,1.8026093487486046e-05,3.733776714464973e-05,2.0918369727841308e-05,1.1703518452497342e-05,1.949689639777342e-05,4.787102971836656e-05,2.3872970780389657e-05,3.778573659670942e-05,5.834785074538261e-05,4.902782305251267e-05,0.00012306793777998605,7.165976810317122e-05,3.17697433837171e-05,-4.9859402811861015e-06,5.094049873428514e-06,2.5683983327861165e-05,4.020629923962245e-05,5.286422301278216e-05,3.547426286081569e-06,7.989693922539317e-05,2.2011128916688346e-05,2.578868664993749e-05,-7.428214568996918e-06,2.511679006548279e-05,2.910575510243025e-05,1.790621099055416e-05,3.573812302062812e-05,1.2796076182386143e-05,2.398823968378308e-05,3.115890400574189e-05,1.6557441747030795e-05,3.345181482861925e-05,7.699352181194134e-06,3.332299776411918e-05,3.3838312219443235e-05,7.233934710503128e-06,2.7873860083472368e-05,1.83565684285248e-05,2.984877459548887e-05,4.1819601682579865e-05,2.934761802353013e-05,8.216794680746728e-06,5.739497810770541e-05,3.6467463561786716e-05,2.695501019730313e-05,4.9311204953977234e-05,5.903672596688391e-06,-2.0098749236335943e-05,3.94662050082476e-05,5.2601073318999614e-05,2.211267577253315e-05,3.030824969108344e-05,1.547347778583549e-05,3.169550006660273e-05,1.4845400988983841e-05,2.044391320461374e-05,9.075399383614893e-06,1.995637397558916e-05,2.0157626587560977e-06,1.875501801871478e-05,4.320653787357954e-06,2.7690606180984885e-05,3.4274806363749126e-05,1.7592145506648705e-05,4.406087673095463e-05,1.3520324406613585e-05,2.3409251237374975e-05,3.325662922536407e-05,4.398846604718753e-05,1.0058982865334392e-05,-1.2504429450051059e-05,4.296734919506922e-05,2.0094370587209206e-05,3.809359614902612e-05,3.148905162967735e-05,6.699316446700147e-06,1.2014003885134194e-05,1.692050701367432e-05,-2.0156727686171176e-05,2.547733693692221e-05,1.6147324249934717e-06,3.0061606409701214e-05,1.4177554991128207e-05,8.647654560435317e-06,4.9101826537033055e-06,2.5279271190360868e-06,4.4574370019200146e-05,3.867214123758891e-05,2.287148245081706e-05,4.2318003566795436e-05,3.432415589151255e-05,1.2105259750338656e-05,2.6956254380957068e-05,2.950113853768244e-05,2.6947034789462257e-05,1.176436206419213e-05,2.092888126446151e-05,4.3332009931661855e-05,2.9130264638489752e-05,4.4891428862314375e-05,2.0357824499127092e-05,1.8502454422467642e-06,4.2471711566908796e-05,3.350645062702759e-05,3.43505484968802e-05,-9.188666690937282e-06,1.2569337871812154e-05,1.3950191767597302e-05,4.246987910294089e-05,3.509663792379472e-05,3.3325917791592884e-05,3.7902690264501045e-05,2.6174843403285017e-05,1.633356321467848e-05,3.45454131018578e-05,2.790564172747051e-05,2.199046014395479e-05,2.0097534127664018e-05,-1.1862379200292956e-05,2.8076786524030276e-05,3.283738486035758e-05,2.24482365174866e-05,3.349145714486753e-05,3.648105728837842e-05,3.27205055088856e-05,1.715940199507523e-05,7.680932258113387e-05,3.3530616728134733e-05,4.6509454361072437e-07,2.043377887527765e-05,3.6010162364186714e-05,2.3650218165425347e-05,3.868869635365727e-05,3.6613156406115324e-05,3.2840414413116184e-06,5.0415802857470546e-05,2.3903031969802495e-05,4.302344557552585e-05,2.6134330336514498e-05,3.153656056278076e-05,3.4372698464641405e-05,3.617946242980909e-05,4.703968874470213e-05,1.9499588207071027e-05,3.865878005066122e-05,1.6627838469101745e-05,3.114775074405605e-05,3.568401246939795e-07,3.1142317859204636e-05,2.994165277479462e-05,2.7493017457905373e-05,3.0622579656624714e-05,2.7781682153731218e-05,6.371696772610095e-05,2.9542691356329752e-05,3.132757934411141e-05,3.761010477328011e-05,3.62021528577807e-05,3.5607802934398873e-05,4.4216876433782826e-05,1.2923430192443959e-05,2.7816137504203346e-05,-7.675662467703128e-06,2.3294635907546226e-05,1.172753639277351e-05,7.5450034846841164e-06,3.985284957337189e-05,3.086258222318688e-05,2.7678835229079175e-05,3.4604602797650096e-05,2.540254146058206e-05,3.063873400544784e-05,1.9069365306339665e-05,5.219013288115547e-05,1.0068592296872109e-05,3.244705081680528e-05,1.0869575627085938e-05,4.916205108256981e-05,6.712467999176254e-05,6.095737868527739e-05,3.056764374963496e-05,7.457409416259392e-06,2.003743556334262e-05,1.2255723060084892e-05,3.774058621421405e-05,6.53675292684331e-06,-3.8746199590919287e-07,3.7592948294997766e-05,-3.521398407211434e-05,3.357976096429093e-05,2.199783743857153e-05,-1.860871059288593e-06,1.7639476059050747e-05,4.048429712505292e-05,1.011411987667087e-06,5.25126307175642e-05,7.66063295964189e-06,2.9025850353506838e-05,3.249698385420359e-05,-4.321262466165475e-05,3.347911126957466e-06,4.037274426891883e-05,2.907243207816237e-05,4.5383842686931664e-05,6.929134345658095e-06,2.7877543613732077e-05,3.0435596923651265e-05,-2.4717639075377315e-05,3.390703936438281e-05,2.996554338121663e-05,3.9213944620309604e-05,4.045444044723616e-05,3.062897206854902e-05,6.278823334567092e-05,3.1001692523979734e-05,4.8198357539061686e-05,2.3572648155678103e-05,3.125975668912113e-05,2.2205197793485832e-05,4.615489627430888e-05,1.9323521277345678e-05,2.2400899233932887e-05,-7.987764323222258e-06,2.322705773903052e-05,1.8003391444482338e-05,4.086548230904036e-05,3.4384487786236914e-05,3.57614627109313e-05,3.541377976931397e-05,2.6530426930859224e-05,1.0429546343963273e-05,2.3431760493588516e-05,4.337371460220664e-05,2.4739806787192322e-05,2.5478755767601675e-05,3.901554002107305e-05,3.848172983370848e-05,3.6502459808083383e-05,-6.5567930370238e-07,2.328865027961867e-05,1.92290275972693e-05,8.66291189699204e-06,5.244425373981094e-05,4.10767695557997e-05,3.712723415555188e-05,4.097421022556901e-05,3.151136913051885e-05,2.19012178335807e-05,3.6268068949192797e-05,4.550872964806017e-06,2.938103819762986e-05,2.417411111181423e-05,3.391054788622282e-05,2.0070821849872908e-05,6.454411023478285e-05,-1.6275524048238696e-06,1.6221551010369093e-05,2.6189176423142096e-05,1.97805701580065e-05,1.6142523362832383e-05,3.827569206203588e-05,1.8208196689533424e-05,3.510953569156893e-05,3.27911322074966e-05,7.610374714560549e-06,4.073025386443318e-05,-0.00014977693900079513,4.065070012202619e-05,-5.227099640247354e-05,-0.00010742288499197841,8.627934928270487e-06,3.2298661042060244e-05,-9.879343145446687e-05,-3.4969518184566006e-05,2.215697292708092e-05,-4.582642525299661e-07,1.9417031075179082e-05,5.2035388360512774e-05,3.654765269593736e-05,3.964958304064645e-05,2.762282847259035e-05,3.499240926293194e-05,3.164741468499099e-05,1.3716171230648601e-05,9.057944107512022e-06,2.5353795180008143e-05
ALL,-8.343834703932746e-06,-1.3184132319720565e-06,4.472620338908372e-05,-3.960756448528058e-05,3.012751418263434e-05,0.00011685707395669046,3.10194152786778e-05,2.5048717441903176e-05,3.5690879357978664e-07,-9.94809397110865e-06,1.6312047108277178e-05,4.5045777727622496e-05,4.5905055994664406e-05,4.013561435141918e-05,9.13220483137736e-05,6.888499371063427e-05,7.165976810317122e-05,0.00019380685493440586,5.35082753752272e-05,-3.997532056561956e-05,-3.10090378375596e-05,2.6492892782574214e-05,5.003844641990587e-05,5.501263818892263e-05,-1.1848204427485238e-05,6.221207459285905e-05,2.4789560899558004e-05,5.268497270329371e-05,-4.298228187500035e-05,6.21858826298865e-05,2.2279406182707868e-05,-4.09133182576679e-06,6.01061959017463e-05,2.033288014804296e-05,1.8509015999974503e-05,4.9591850980177004e-05,2.6867229063400997e-05,3.1046640572236484e-05,2.0911968241291638e-05,4.0132166997544585e-05,4.782583703426227e-05,2.2024285819273225e-05,2.6416118790841437e-05,4.2539404565423724e-05,4.418208692531502e-05,4.675187326490945e-05,2.3667788341568856e-05,2.1868418069026322e-05,8.7957801566714e-05,4.039783020180874e-05,3.3516409147329964e-05,5.336337773232669e-05,3.528785221685148e-05,-6.642633385525631e-05,6.089360174170977e-05,3.9202347437814055e-05,4.40294160998244e-05,4.7983612215324224e-05,2.5591891524372924e-05,4.1381356287780145e-05,4.663292902590209e-05,2.7746699676533516e-05,-9.070728560090241e-06,3.0513447030287798e-05,6.8355682162274065e-06,5.892958752459113e-05,3.702766903721426e-05,3.675771239979918e-05,1.6801630842237972e-05,2.4792698123214154e-05,6.246773388300983e-05,1.9004978340677083e-05,1.1135094363267606e-05,4.522792757526487e-05,3.8921074228162823e-05,1.532449089803341e-05,5.609403819383584e-06,3.56919066574702e-05,3.1963710185288506e-05,6.246998435775739e-05,4.0791495393325425e-06,1.9379478419670012e-05,1.8499994796726955e-05,1.612424346204189e-05,-4.614416341977726e-05,5.442256924445643e-05,-1.0694795456194523e-05,3.950963109378198e-05,-7.092825086824714e-07,4.5503033367718434e-05,-2.5636285295006824e-06,1.2061319443818777e-05,5.153431201360885e-05,5.2964041363278704e-05,3.436106622486054e-05,5.12022494426187e-05,4.9537178057541e-05,-7.013472963220037e-07,3.16056162637174e-05,3.171086383435417e-05,3.6446182591339546e-05,2.8087783595999855e-05,3.594320524826005e-05,5.463776890584842e-05,3.2979209274572305e-05,5.576212540793868e-05,4.012794351516398e-05,-3.885776270912425e-06,5.159140644796282e-05,5.111813861931838e-05,8.407256794486616e-05,-1.602541963603355e-05,4.1843534241197355e-05,6.2428648084437e-05,5.4948348124099436e-05,3.355526385624854e-05,5.7203900956720024e-05,5.3005425316013967e-05,3.707954485690381e-05,1.4375407684653196e-05,2.6485627275241415e-05,5.0355336849640474e-05,5.160834975815662e-05,2.0033105064806982e-05,-1.311944809851985e-05,4.9216937970440885e-05,5.463994585463643e-05,3.8893074290404695e-05,6.339977006546275e-05,4.618510554330757e-05,2.8619483353198834e-05,3.341886416972651e-05,0.00010735507121893445,4.005692216207844e-05,1.0905356118614681e-05,1.2654948564061e-05,3.30276932442498e-05,2.9024135425446917e-05,3.298037829108384e-05,3.7842599495166374e-05,2.0984171123060022e-05,2.8562246150561233e-05,7.708629511615027e-06,4.943592430301053e-05,-1.3178195638844945e-06,3.638344177054086e-05,3.8140801161429255e-05,3.571275717857032e-05,6.198140458656602e-05,3.484284645239087e-05,4.970480378067694e-05,3.870594309263171e-05,5.2610993198571685e-05,-5.270479437696423e-05,3.5200351164022227e-05,5.020002137595791e-05,3.511223247068228e-05,3.2841882079267876e-05,2.869584419001113e-05,9.104393803578878e-05,3.2638280402830276e-05,3.832002023040899e-05,3.690333707604563e-05,2.785675579301099e-05,4.361795854876797e-05,7.7522075197193e-05,3.652129258578165e-05,2.391233099261052e-05,-5.2034063006837374e-05,2.134755847970109e-05,2.093855764239912e-05,8.592904833731576e-07,4.9249074780642245e-05,3.0200797980043584e-05,3.0769438651978926e-05,4.6277842603006944e-05,4.398025856231413e-05,4.001216005162638e-05,-1.7303443439750784e-05,8.322614216928969e-05,-3.440454871667559e-06,4.118556740631416e-05,2.610863706616579e-05,5.546158618127554e-05,6.0141721624425395e-05,6.639275563937961e-05,3.653084031749923e-05,2.5329853852947136e-05,3.484056155275776e-05,2.2699666636417374e-05,5.655887809382826e-05,-3.2247024805767823e-06,-2.880353696332183e-06,6.277655071509394e-05,-5.779785029744529e-05,5.321829774370605e-05,3.137362451501601e-05,7.577207619417208e-06,7.742830058845624e-06,3.293331998255399e-05,-2.0167271918540285e-05,4.819197612608845e-05,-1.0199837132628017e-05,4.851200195927877e-05,1.117224133066022e-05,-7.224893131210429e-05,-3.6404679858547496e-05,5.845941327073926e-05,7.085230555280985e-06,3.098648013503866e-05,1.588936759609219e-05,4.1707780531371164e-05,5.968184974297205e-05,-7.331412064946116e-05,4.2063503737748746e-05,3.712610549739039e-05,2.7021929054072634e-05,6.883921575656704e-05,3.886078659858902e-05,0.00011464056737859769,3.524118939138414e-05,4.807118181525781e-05,2.7434395495440893e-05,5.956311252654974e-05,2.2048906121770725e-05,7.978957267778694e-05,4.1121780382678605e-05,3.704298541222195e-05,-4.109760215894031e-05,3.501055476460034e-05,2.7910291786002236e-05,6.31871167498954e-05,5.189170103331096e-05,4.435726597247151e-05,3.671504418580298e-05,3.369033906986228e-05,1.3121939740158345e-05,3.440834053885258e-05,3.4724047961296056e-05,3.341676989249843e-05,3.1244759799497164e-05,5.5074502867436936e-05,3.728403255161202e-05,5.612883020570425e-05,-2.8708999628929627e-05,5.7994989244212656e-05,6.050070753379527e-05,1.5681937862687696e-05,7.307252755846133e-05,6.721413119181327e-05,3.528345681445149e-05,4.8636699719952586e-05,3.6451538188580155e-05,6.726537777147383e-06,6.146030790955197e-05,2.4233768766732768e-05,2.3904340416243497e-05,9.723493352022268e-06,4.210919178551896e-05,2.751930793503943e-05,0.00011014558398209541,-1.3661379149437068e-05,3.414661726600692e-05,2.784271117655091e-05,1.1617512535804321e-05,-9.877597069503927e-06,2.6269607660063197e-05,-2.457583405599105e-05,4.4304186018843925e-05,4.972829099518285e-05,2.4425170576630668e-05,6.498130267860459e-05,-0.0002070257356034308,4.42576527501031e-05,-7.393510580752834e-05,-0.0001490352454902117,7.725998319914212e-06,3.438199328278116e-05,-0.00013888441341151675,-5.484337249848413e-05,3.276215825251095e-05,-4.6522807205313516e-05,5.813592006128911e-05,4.9073610520618194e-05,5.9694651130259765e-05,5.397233774083985e-05,4.9036871870134455e-05,2.6930522593254547e-05,5.809697401681981e-05,3.630834862996941e-05,3.370815108988779e-05,1.8001686648079344e-05
